SpectraSuite Datei
++++++++++++++++++++++++++++++++++++
Datum: Tue Mar 08 10:41:14 CET 2016
Benutzer: Admin
Dark-Spektrum vorhanden: Ja
Referenz-Spektrum vorhanden: Nein
Zahl der probierten Teilspektren: 1
Spektrometer: USB4F05832
Integrationszeit (usec): 5000 (USB4F05832)
Spektren Durchschnitt berechnet: 800 (USB4F05832)
Boxcar Glï¿½ttung: 0 (USB4F05832)
Dunkelstromkorrektur: Nein (USB4F05832)
Puls/Lampe aktiviert: Nein (USB4F05832)
Correct for Detector Non-linearity: Nein (USB4F05832)
Streulichtkorrektur: Nein (USB4F05832)
Anzahl Pixel in verarbeitetem Spektrum: 3648
>>>>>Begin Processed Spectral Data<<<<<
177,54	-1,47
177,75	-1,47
177,97	-1,47
178,19	1,57
178,41	-0,51
178,63	0,31
178,85	-0,02
179,07	-0,15
179,29	0,47
179,51	-1,03
179,73	1,34
179,95	1,70
180,17	-0,12
180,39	-0,74
180,61	0,60
180,83	0,85
181,05	-1,20
181,27	-0,32
181,49	-2,28
181,71	0,15
181,92	0,14
182,14	1,66
182,36	-3,85
182,58	2,09
182,80	0,30
183,02	1,40
183,24	1,01
183,46	0,53
183,68	-1,29
183,90	-1,61
184,12	-0,77
184,34	1,19
184,56	3,01
184,78	-1,24
185,00	1,68
185,21	-4,97
185,43	-0,06
185,65	-0,50
185,87	-0,78
186,09	-0,17
186,31	-1,99
186,53	2,02
186,75	-1,14
186,97	3,97
187,19	0,98
187,41	2,06
187,63	1,83
187,84	1,48
188,06	-0,95
188,28	1,55
188,50	-1,33
188,72	-0,43
188,94	2,29
189,16	-1,36
189,38	1,57
189,60	-0,32
189,82	-0,70
190,03	-0,75
190,25	-3,38
190,47	1,58
190,69	0,53
190,91	-1,01
191,13	-4,56
191,35	-0,51
191,57	-2,55
191,79	-2,22
192,01	-2,15
192,22	2,02
192,44	-1,51
192,66	-1,04
192,88	0,19
193,10	0,20
193,32	-4,77
193,54	-0,34
193,76	-1,53
193,98	-1,26
194,19	1,19
194,41	-1,80
194,63	2,42
194,85	0,65
195,07	0,33
195,29	0,35
195,51	1,92
195,73	-1,30
195,94	1,06
196,16	0,50
196,38	-1,07
196,60	-2,25
196,82	-2,20
197,04	0,30
197,26	-0,71
197,48	-2,42
197,69	0,72
197,91	-3,84
198,13	0,70
198,35	-0,09
198,57	0,89
198,79	-2,48
199,01	-2,64
199,22	-0,05
199,44	1,15
199,66	-2,69
199,88	-0,47
200,10	1,80
200,32	0,71
200,54	-0,23
200,75	0,60
200,97	-1,17
201,19	-1,41
201,41	1,56
201,63	-3,17
201,85	-1,26
202,06	-1,50
202,28	-2,94
202,50	1,06
202,72	-2,37
202,94	1,90
203,16	-2,72
203,38	2,87
203,59	0,14
203,81	0,91
204,03	-0,77
204,25	0,67
204,47	-0,32
204,69	1,72
204,90	-1,98
205,12	-1,64
205,34	1,86
205,56	2,14
205,78	1,35
206,00	-0,79
206,21	1,79
206,43	-0,49
206,65	-0,27
206,87	2,23
207,09	-2,49
207,30	-0,77
207,52	2,28
207,74	0,31
207,96	-2,89
208,18	-0,66
208,40	0,07
208,61	3,21
208,83	1,14
209,05	1,70
209,27	1,07
209,49	1,71
209,70	-2,18
209,92	-0,11
210,14	-4,35
210,36	0,09
210,58	-1,23
210,79	-1,70
211,01	4,01
211,23	0,34
211,45	0,51
211,67	-0,82
211,88	3,33
212,10	4,55
212,32	-0,89
212,54	0,03
212,76	3,76
212,97	1,09
213,19	-3,59
213,41	1,13
213,63	-0,04
213,85	0,49
214,06	-0,38
214,28	-0,62
214,50	-3,15
214,72	-1,42
214,94	-1,13
215,15	2,95
215,37	-2,10
215,59	-3,25
215,81	-0,99
216,02	-2,52
216,24	-0,14
216,46	-1,85
216,68	0,90
216,90	-0,22
217,11	0,11
217,33	1,34
217,55	0,03
217,77	0,72
217,98	-1,22
218,20	3,24
218,42	-3,59
218,64	-0,45
218,85	-0,92
219,07	-2,39
219,29	0,51
219,51	0,60
219,73	0,57
219,94	-2,09
220,16	-0,43
220,38	-1,38
220,60	1,57
220,81	-0,52
221,03	-1,34
221,25	1,65
221,47	-3,76
221,68	-3,09
221,90	0,60
222,12	1,38
222,34	-0,75
222,55	0,08
222,77	-1,07
222,99	-2,38
223,21	-0,28
223,42	-1,54
223,64	-2,60
223,86	0,89
224,08	0,49
224,29	-2,04
224,51	2,26
224,73	0,45
224,94	2,64
225,16	0,34
225,38	-1,47
225,60	0,88
225,81	-2,33
226,03	-1,37
226,25	-1,62
226,47	-0,98
226,68	0,69
226,90	0,73
227,12	-3,35
227,33	1,42
227,55	-2,24
227,77	-0,01
227,99	0,81
228,20	0,09
228,42	0,79
228,64	2,09
228,86	-1,46
229,07	2,84
229,29	3,80
229,51	2,02
229,72	2,52
229,94	1,81
230,16	2,90
230,38	-0,10
230,59	2,60
230,81	-1,96
231,03	-1,33
231,24	1,23
231,46	-0,51
231,68	-0,02
231,89	-4,46
232,11	0,59
232,33	-0,65
232,55	0,21
232,76	-0,54
232,98	1,29
233,20	-3,32
233,41	2,83
233,63	-2,21
233,85	-1,84
234,06	1,34
234,28	-1,26
234,50	-1,19
234,71	-0,35
234,93	-0,05
235,15	-1,34
235,37	-3,36
235,58	-0,66
235,80	0,13
236,02	3,13
236,23	0,60
236,45	0,32
236,67	-0,71
236,88	-2,83
237,10	-0,33
237,32	0,84
237,53	2,35
237,75	-2,29
237,97	-1,26
238,18	0,86
238,40	-2,08
238,62	2,38
238,83	-1,44
239,05	-1,64
239,27	-0,71
239,48	-0,97
239,70	0,04
239,92	0,98
240,13	-0,00
240,35	-1,93
240,57	2,68
240,78	-0,74
241,00	-1,53
241,22	1,94
241,43	-0,04
241,65	2,10
241,87	-1,92
242,08	1,24
242,30	-3,22
242,52	-1,98
242,73	0,50
242,95	-1,19
243,16	0,24
243,38	2,11
243,60	-1,60
243,81	4,70
244,03	-0,83
244,25	0,78
244,46	1,25
244,68	-0,83
244,90	-0,23
245,11	-2,97
245,33	-1,60
245,55	-0,75
245,76	0,44
245,98	0,62
246,19	0,60
246,41	-1,38
246,63	-0,06
246,84	-1,40
247,06	-1,60
247,28	-0,21
247,49	-2,75
247,71	3,34
247,92	-1,94
248,14	-2,50
248,36	-0,36
248,57	-4,87
248,79	3,02
249,01	1,42
249,22	3,01
249,44	-2,68
249,65	-3,44
249,87	-0,61
250,09	0,59
250,30	0,81
250,52	-0,34
250,73	0,08
250,95	-1,48
251,17	1,78
251,38	-0,09
251,60	-0,79
251,81	1,94
252,03	-0,62
252,25	-3,35
252,46	2,66
252,68	1,37
252,89	2,23
253,11	0,16
253,33	-0,78
253,54	-0,00
253,76	-2,50
253,97	-1,58
254,19	-3,01
254,41	-3,10
254,62	-1,79
254,84	3,98
255,05	-1,26
255,27	-1,37
255,49	-0,90
255,70	0,71
255,92	-1,47
256,13	-0,82
256,35	-0,15
256,56	-1,47
256,78	-0,30
257,00	-0,16
257,21	-0,65
257,43	0,58
257,64	2,36
257,86	-0,24
258,08	-0,46
258,29	1,58
258,51	0,34
258,72	-0,94
258,94	3,03
259,15	-0,92
259,37	2,51
259,59	1,49
259,80	0,33
260,02	-1,75
260,23	-0,68
260,45	-1,65
260,66	-2,00
260,88	-3,26
261,09	-3,39
261,31	-2,16
261,53	-2,77
261,74	0,51
261,96	1,04
262,17	-1,52
262,39	-1,00
262,60	1,13
262,82	2,47
263,03	-1,30
263,25	0,87
263,46	2,67
263,68	-0,14
263,90	1,09
264,11	-0,15
264,33	0,10
264,54	0,05
264,76	-0,71
264,97	-2,86
265,19	1,30
265,40	0,43
265,62	2,42
265,83	0,04
266,05	0,10
266,26	1,63
266,48	-0,74
266,70	-1,41
266,91	0,13
267,13	1,48
267,34	-0,22
267,56	0,23
267,77	0,92
267,99	0,14
268,20	1,20
268,42	-0,77
268,63	0,43
268,85	0,95
269,06	1,52
269,28	0,81
269,49	1,60
269,71	-0,82
269,92	-1,70
270,14	2,34
270,35	-0,39
270,57	0,49
270,78	2,65
271,00	1,83
271,21	-4,06
271,43	1,62
271,64	-3,78
271,86	1,90
272,07	1,16
272,29	0,81
272,50	0,37
272,72	1,61
272,93	0,12
273,15	-2,90
273,36	2,50
273,58	-0,45
273,79	2,52
274,01	1,21
274,22	0,47
274,44	3,31
274,65	0,42
274,87	-0,47
275,08	1,34
275,30	3,18
275,51	-1,79
275,73	-1,79
275,94	0,10
276,16	0,10
276,37	0,66
276,59	-3,09
276,80	2,44
277,02	2,51
277,23	0,02
277,45	-0,95
277,66	0,04
277,88	-2,96
278,09	-0,39
278,30	2,99
278,52	-0,65
278,73	1,57
278,95	-0,38
279,16	-1,04
279,38	4,09
279,59	1,67
279,81	0,15
280,02	2,36
280,24	-0,38
280,45	-2,31
280,67	0,50
280,88	0,56
281,09	2,13
281,31	-0,67
281,52	0,55
281,74	2,48
281,95	-0,54
282,17	-0,71
282,38	2,91
282,60	-3,75
282,81	-1,69
283,02	0,44
283,24	-0,88
283,45	0,14
283,67	-0,05
283,88	0,27
284,10	0,28
284,31	1,35
284,53	1,43
284,74	2,42
284,95	-2,16
285,17	-3,49
285,38	0,03
285,60	-3,18
285,81	-3,12
286,03	-1,06
286,24	-2,01
286,45	1,35
286,67	2,18
286,88	-0,62
287,10	-0,53
287,31	-0,71
287,53	-1,24
287,74	0,46
287,95	-1,56
288,17	-2,87
288,38	-0,61
288,60	0,61
288,81	-1,80
289,02	0,68
289,24	-2,81
289,45	-0,58
289,67	1,60
289,88	1,07
290,10	0,74
290,31	1,22
290,52	0,82
290,74	3,02
290,95	-1,68
291,17	0,31
291,38	1,21
291,59	3,51
291,81	-0,94
292,02	-0,00
292,24	-0,63
292,45	4,02
292,66	-3,54
292,88	3,49
293,09	-1,20
293,31	0,52
293,52	-0,71
293,73	-0,59
293,95	-2,37
294,16	-0,86
294,37	-0,91
294,59	-2,42
294,80	-2,71
295,02	0,51
295,23	-0,02
295,44	-1,21
295,66	0,55
295,87	-0,48
296,09	1,12
296,30	-0,38
296,51	-0,42
296,73	0,58
296,94	-0,70
297,15	-0,09
297,37	0,70
297,58	3,52
297,79	-0,73
298,01	-3,14
298,22	4,40
298,44	0,15
298,65	-1,59
298,86	0,24
299,08	-2,75
299,29	-0,78
299,50	0,00
299,72	-0,55
299,93	1,99
300,14	-2,50
300,36	-0,86
300,57	2,07
300,79	0,22
301,00	1,59
301,21	-0,75
301,43	-2,24
301,64	0,72
301,85	-1,50
302,07	2,68
302,28	0,29
302,49	1,10
302,71	0,65
302,92	-5,08
303,13	-0,58
303,35	-0,14
303,56	1,51
303,77	-1,11
303,99	-0,64
304,20	-3,14
304,41	3,44
304,63	-0,88
304,84	-1,79
305,05	-1,16
305,27	-1,16
305,48	0,65
305,69	-0,06
305,91	-0,60
306,12	0,89
306,33	-0,86
306,55	0,60
306,76	-0,37
306,97	0,19
307,19	0,94
307,40	4,43
307,61	-1,37
307,82	-2,63
308,04	0,66
308,25	2,01
308,46	-0,34
308,68	1,15
308,89	-0,72
309,10	0,64
309,32	1,32
309,53	1,82
309,74	-1,87
309,96	-1,18
310,17	-0,13
310,38	4,86
310,59	-1,19
310,81	1,04
311,02	-4,90
311,23	-1,20
311,45	0,86
311,66	-0,09
311,87	-1,22
312,09	-1,91
312,30	-0,45
312,51	-0,75
312,72	-1,50
312,94	-0,41
313,15	-4,60
313,36	0,08
313,58	-1,15
313,79	2,46
314,00	0,30
314,21	-0,93
314,43	-1,54
314,64	1,91
314,85	-0,97
315,06	-1,72
315,28	1,77
315,49	1,57
315,70	-1,13
315,92	-1,93
316,13	1,43
316,34	-0,89
316,55	2,05
316,77	2,41
316,98	-0,65
317,19	-1,16
317,40	1,04
317,62	-3,68
317,83	-1,24
318,04	1,17
318,25	2,14
318,47	-0,66
318,68	-0,02
318,89	-0,14
319,11	0,88
319,32	-1,27
319,53	0,26
319,74	-0,95
319,96	0,68
320,17	-2,52
320,38	3,67
320,59	2,42
320,81	-1,11
321,02	1,19
321,23	0,18
321,44	-0,30
321,65	-1,11
321,87	-0,06
322,08	-1,88
322,29	1,98
322,50	-0,15
322,72	-0,73
322,93	1,39
323,14	0,95
323,35	-1,82
323,57	1,95
323,78	-2,54
323,99	3,67
324,20	-1,52
324,41	2,74
324,63	-0,90
324,84	0,48
325,05	1,48
325,26	0,42
325,48	-0,84
325,69	1,15
325,90	2,57
326,11	2,72
326,32	1,49
326,54	-0,36
326,75	3,04
326,96	-0,61
327,17	1,16
327,39	2,40
327,60	2,02
327,81	0,39
328,02	-2,72
328,23	2,28
328,45	0,59
328,66	-0,74
328,87	6,06
329,08	9,98
329,29	21,98
329,51	36,70
329,72	47,38
329,93	60,07
330,14	65,95
330,35	56,74
330,56	44,30
330,78	29,94
330,99	11,86
331,20	8,67
331,41	0,38
331,62	2,11
331,84	-0,34
332,05	2,37
332,26	1,29
332,47	1,95
332,68	-1,41
332,90	1,37
333,11	-1,47
333,32	-1,51
333,53	1,58
333,74	-0,51
333,95	0,10
334,17	-2,81
334,38	-1,71
334,59	2,14
334,80	-3,39
335,01	-2,23
335,22	1,46
335,44	-0,57
335,65	-1,89
335,86	1,48
336,07	-0,47
336,28	-0,37
336,49	-2,18
336,71	-0,45
336,92	0,79
337,13	-0,08
337,34	-1,47
337,55	-2,13
337,76	-2,15
337,97	-0,37
338,19	4,34
338,40	-0,09
338,61	-5,19
338,82	2,21
339,03	2,20
339,24	1,34
339,45	1,47
339,67	0,98
339,88	1,13
340,09	1,10
340,30	3,39
340,51	-2,10
340,72	-0,85
340,93	-2,47
341,15	0,19
341,36	-2,51
341,57	1,70
341,78	2,44
341,99	-2,19
342,20	2,22
342,41	-0,57
342,62	-0,56
342,84	1,06
343,05	-1,99
343,26	0,52
343,47	-4,77
343,68	0,28
343,89	-2,77
344,10	0,94
344,31	2,73
344,53	-1,13
344,74	-0,54
344,95	0,31
345,16	0,56
345,37	-2,34
345,58	0,70
345,79	0,10
346,00	0,63
346,21	2,10
346,42	-2,62
346,64	4,23
346,85	-1,44
347,06	-0,88
347,27	-0,26
347,48	-0,52
347,69	0,76
347,90	0,41
348,11	0,56
348,32	-1,84
348,53	-0,94
348,75	-2,49
348,96	-0,60
349,17	1,57
349,38	1,84
349,59	-0,76
349,80	-1,12
350,01	-1,05
350,22	-0,37
350,43	-4,50
350,64	-1,55
350,85	1,45
351,06	-0,41
351,28	2,02
351,49	-0,34
351,70	2,35
351,91	2,97
352,12	1,10
352,33	0,58
352,54	1,19
352,75	1,31
352,96	0,81
353,17	-2,21
353,38	-0,11
353,59	-0,03
353,80	0,49
354,01	0,18
354,22	-1,09
354,44	-2,18
354,65	1,31
354,86	-4,68
355,07	-1,69
355,28	-1,99
355,49	-2,28
355,70	-1,16
355,91	-1,55
356,12	-2,00
356,33	-0,79
356,54	-1,29
356,75	-0,68
356,96	0,98
357,17	-1,94
357,38	-0,00
357,59	-1,15
357,80	1,62
358,01	1,53
358,22	-1,94
358,43	0,98
358,64	-0,36
358,85	-1,76
359,07	3,21
359,28	-1,59
359,49	-1,70
359,70	2,66
359,91	-1,87
360,12	-2,64
360,33	-1,02
360,54	0,60
360,75	1,91
360,96	0,49
361,17	-0,82
361,38	-0,79
361,59	-1,05
361,80	3,72
362,01	1,14
362,22	4,42
362,43	1,73
362,64	-1,14
362,85	1,73
363,06	0,78
363,27	1,76
363,48	-3,54
363,69	0,10
363,90	0,45
364,11	0,96
364,32	-1,66
364,53	0,58
364,74	-0,75
364,95	-2,33
365,16	2,02
365,37	2,90
365,58	-6,00
365,79	1,22
366,00	-0,99
366,21	2,24
366,42	-0,13
366,63	-1,12
366,84	1,30
367,05	2,57
367,26	-0,51
367,47	-0,41
367,68	-0,08
367,89	0,61
368,10	2,04
368,31	-0,46
368,52	0,88
368,73	-4,35
368,94	-1,49
369,15	-1,00
369,36	-1,14
369,57	3,67
369,78	2,01
369,99	-0,15
370,20	0,70
370,40	-1,12
370,61	-4,02
370,82	3,13
371,03	2,17
371,24	0,58
371,45	0,22
371,66	0,29
371,87	3,51
372,08	-3,17
372,29	-4,93
372,50	-0,89
372,71	3,99
372,92	-0,60
373,13	1,29
373,34	-1,68
373,55	2,42
373,76	-1,10
373,97	0,85
374,18	-2,39
374,39	0,66
374,60	0,91
374,81	-0,27
375,01	0,99
375,22	-0,65
375,43	-1,68
375,64	-2,62
375,85	2,72
376,06	3,34
376,27	3,94
376,48	0,73
376,69	-0,97
376,90	-1,84
377,11	1,13
377,32	2,56
377,53	0,14
377,74	0,82
377,94	-1,89
378,15	-2,70
378,36	2,02
378,57	-0,25
378,78	2,82
378,99	0,79
379,20	3,40
379,41	-1,17
379,62	1,23
379,83	2,49
380,04	1,20
380,25	-1,68
380,45	0,44
380,66	2,56
380,87	-3,08
381,08	3,26
381,29	-1,46
381,50	-1,88
381,71	-1,34
381,92	-2,62
382,13	-1,97
382,34	2,41
382,55	-3,14
382,75	2,27
382,96	0,71
383,17	-1,62
383,38	0,18
383,59	0,20
383,80	2,71
384,01	-1,14
384,22	-0,87
384,43	-0,42
384,63	0,39
384,84	-4,08
385,05	0,46
385,26	2,89
385,47	-0,34
385,68	0,89
385,89	-1,53
386,10	2,59
386,30	-1,80
386,51	-1,48
386,72	-0,46
386,93	-2,05
387,14	2,29
387,35	1,32
387,56	2,46
387,77	-0,91
387,97	-1,78
388,18	-0,07
388,39	1,45
388,60	-1,74
388,81	2,19
389,02	-1,19
389,23	0,53
389,43	0,89
389,64	2,03
389,85	0,01
390,06	1,37
390,27	1,27
390,48	-6,10
390,69	-1,18
390,89	0,79
391,10	0,94
391,31	-0,92
391,52	-0,97
391,73	2,41
391,94	0,02
392,14	-3,88
392,35	2,53
392,56	3,10
392,77	-1,47
392,98	-1,81
393,19	2,25
393,39	4,90
393,60	-1,09
393,81	3,95
394,02	1,51
394,23	0,23
394,44	1,94
394,64	0,79
394,85	-0,91
395,06	2,28
395,27	0,70
395,48	1,18
395,69	-0,76
395,89	2,09
396,10	-1,35
396,31	1,19
396,52	1,62
396,73	1,77
396,93	1,16
397,14	-1,61
397,35	-1,51
397,56	-0,38
397,77	2,72
397,97	2,03
398,18	-2,72
398,39	0,69
398,60	-1,03
398,81	1,36
399,01	1,40
399,22	1,53
399,43	-1,28
399,64	0,88
399,85	1,97
400,05	-0,23
400,26	-3,04
400,47	-2,15
400,68	-1,07
400,89	0,56
401,09	-0,02
401,30	-2,19
401,51	1,64
401,72	-0,22
401,93	-0,46
402,13	-0,38
402,34	1,92
402,55	1,53
402,76	0,55
402,96	2,11
403,17	0,20
403,38	-1,85
403,59	1,37
403,80	2,49
404,00	1,33
404,21	-1,02
404,42	3,11
404,63	-0,40
404,83	-1,42
405,04	2,02
405,25	-0,80
405,46	1,19
405,66	-2,28
405,87	-0,87
406,08	-4,71
406,29	0,93
406,49	1,11
406,70	1,04
406,91	-0,98
407,12	2,37
407,32	-0,62
407,53	-0,26
407,74	1,45
407,95	0,93
408,15	2,62
408,36	-0,51
408,57	2,50
408,78	0,09
408,98	1,04
409,19	0,49
409,40	2,25
409,61	-2,64
409,81	-1,64
410,02	0,08
410,23	-0,55
410,44	0,10
410,64	-0,59
410,85	1,44
411,06	1,81
411,26	-0,31
411,47	-1,09
411,68	0,32
411,89	0,18
412,09	-0,01
412,30	0,29
412,51	1,12
412,72	2,42
412,92	-1,55
413,13	2,78
413,34	0,53
413,54	-0,49
413,75	0,64
413,96	-3,63
414,17	2,05
414,37	1,57
414,58	0,18
414,79	1,19
414,99	3,30
415,20	-1,63
415,41	4,31
415,61	5,86
415,82	3,07
416,03	1,79
416,24	1,12
416,44	-0,54
416,65	1,15
416,86	1,35
417,06	-1,47
417,27	0,42
417,48	1,01
417,68	0,63
417,89	0,01
418,10	4,35
418,30	-0,39
418,51	1,27
418,72	3,71
418,92	3,48
419,13	6,55
419,34	3,85
419,55	5,55
419,75	3,24
419,96	4,35
420,17	2,65
420,37	1,41
420,58	-0,08
420,79	-3,26
420,99	1,16
421,20	-0,27
421,41	-1,71
421,61	-0,26
421,82	2,07
422,03	1,69
422,23	0,02
422,44	2,09
422,65	4,68
422,85	-0,85
423,06	-1,06
423,26	0,49
423,47	-0,70
423,68	1,96
423,88	-0,69
424,09	-1,35
424,30	-1,17
424,50	-0,94
424,71	-0,33
424,92	-0,28
425,12	0,27
425,33	5,44
425,54	2,42
425,74	0,23
425,95	2,72
426,15	1,69
426,36	0,51
426,57	-0,30
426,77	3,25
426,98	3,03
427,19	2,17
427,39	3,46
427,60	0,27
427,81	0,96
428,01	1,27
428,22	0,95
428,42	-2,54
428,63	1,48
428,84	1,67
429,04	-1,25
429,25	1,30
429,45	2,07
429,66	2,00
429,87	0,14
430,07	1,96
430,28	1,17
430,49	-1,10
430,69	0,16
430,90	3,21
431,10	1,58
431,31	-0,96
431,52	3,26
431,72	0,84
431,93	0,49
432,13	-0,73
432,34	0,99
432,55	0,62
432,75	-0,43
432,96	1,86
433,16	-1,22
433,37	1,98
433,58	5,15
433,78	1,63
433,99	-0,71
434,19	2,70
434,40	3,06
434,60	1,00
434,81	-2,24
435,02	0,63
435,22	0,84
435,43	2,23
435,63	2,01
435,84	1,29
436,05	2,29
436,25	1,39
436,46	1,07
436,66	-1,04
436,87	2,32
437,07	0,94
437,28	-1,69
437,48	0,59
437,69	-0,87
437,90	-1,70
438,10	1,13
438,31	0,30
438,51	-2,88
438,72	2,27
438,92	1,99
439,13	2,99
439,34	1,92
439,54	1,64
439,75	0,72
439,95	-2,31
440,16	0,72
440,36	3,28
440,57	1,13
440,77	2,81
440,98	-1,37
441,18	-1,23
441,39	2,07
441,60	-1,85
441,80	0,23
442,01	0,56
442,21	1,03
442,42	-1,75
442,62	3,68
442,83	1,99
443,03	0,37
443,24	0,89
443,44	1,24
443,65	-0,20
443,85	0,33
444,06	-2,39
444,26	1,87
444,47	1,25
444,67	-0,85
444,88	1,36
445,09	2,21
445,29	-2,12
445,50	-3,11
445,70	-3,00
445,91	-1,62
446,11	1,03
446,32	4,76
446,52	-0,29
446,73	-0,13
446,93	4,42
447,14	-0,42
447,34	-0,92
447,55	1,52
447,75	-0,67
447,96	1,05
448,16	1,45
448,37	-0,10
448,57	3,41
448,78	1,62
448,98	1,48
449,19	-2,40
449,39	3,11
449,60	-0,46
449,80	3,11
450,01	-0,50
450,21	-2,61
450,42	-0,43
450,62	-1,46
450,83	-2,31
451,03	0,52
451,23	-0,17
451,44	0,26
451,64	1,47
451,85	1,01
452,05	0,70
452,26	-0,23
452,46	-2,70
452,67	-2,17
452,87	0,46
453,08	2,05
453,28	1,00
453,49	0,50
453,69	0,90
453,90	-0,31
454,10	-1,75
454,31	1,69
454,51	2,91
454,71	0,13
454,92	3,86
455,12	1,63
455,33	-1,19
455,53	0,29
455,74	-1,91
455,94	-0,87
456,15	-1,79
456,35	0,42
456,55	0,21
456,76	4,83
456,96	3,18
457,17	-1,64
457,37	2,97
457,58	1,11
457,78	2,95
457,99	-1,08
458,19	-3,74
458,39	1,32
458,60	-0,59
458,80	-1,19
459,01	-2,62
459,21	0,62
459,42	-0,22
459,62	0,10
459,82	0,70
460,03	1,14
460,23	2,39
460,44	-1,58
460,64	1,34
460,85	-0,55
461,05	-1,49
461,25	-2,14
461,46	1,23
461,66	-0,83
461,87	-0,37
462,07	-0,37
462,27	2,55
462,48	-1,01
462,68	3,69
462,89	-3,09
463,09	-1,47
463,29	0,65
463,50	-0,81
463,70	-0,12
463,91	2,75
464,11	-1,80
464,31	1,13
464,52	-0,27
464,72	2,46
464,93	0,65
465,13	-1,35
465,33	2,65
465,54	-2,39
465,74	2,60
465,95	1,84
466,15	1,62
466,35	5,26
466,56	4,15
466,76	6,23
466,96	-0,84
467,17	-0,59
467,37	-0,67
467,58	-0,15
467,78	0,48
467,98	3,41
468,19	-0,66
468,39	-3,89
468,59	3,01
468,80	1,07
469,00	-1,05
469,21	1,07
469,41	-0,09
469,61	0,24
469,82	-0,83
470,02	2,96
470,22	0,50
470,43	0,87
470,63	0,89
470,83	4,19
471,04	-1,86
471,24	-3,96
471,45	1,44
471,65	2,56
471,85	2,49
472,06	0,42
472,26	-0,88
472,46	-2,21
472,67	1,83
472,87	0,32
473,07	-0,70
473,28	3,63
473,48	1,08
473,68	1,27
473,89	4,17
474,09	-0,90
474,29	3,39
474,50	2,16
474,70	0,38
474,90	1,04
475,11	-1,21
475,31	-0,48
475,51	0,21
475,72	4,01
475,92	0,70
476,12	-1,29
476,33	-3,56
476,53	0,51
476,73	1,06
476,93	2,12
477,14	2,21
477,34	1,13
477,54	2,04
477,75	1,71
477,95	0,95
478,15	-0,97
478,36	3,45
478,56	3,39
478,76	-1,50
478,97	1,18
479,17	2,30
479,37	4,11
479,57	0,36
479,78	2,53
479,98	1,68
480,18	-1,41
480,39	-0,85
480,59	-3,51
480,79	-0,33
480,99	0,12
481,20	1,72
481,40	1,66
481,60	0,69
481,81	-1,07
482,01	2,44
482,21	-0,88
482,41	-1,60
482,62	-1,38
482,82	-2,16
483,02	4,43
483,23	1,39
483,43	3,54
483,63	1,35
483,83	-1,33
484,04	-0,42
484,24	3,48
484,44	-1,19
484,64	0,11
484,85	-0,00
485,05	0,27
485,25	0,45
485,45	0,57
485,66	2,48
485,86	-2,98
486,06	-0,89
486,26	4,85
486,47	-0,42
486,67	2,16
486,87	-0,31
487,07	-0,43
487,28	0,59
487,48	-0,41
487,68	-0,98
487,88	2,87
488,09	4,64
488,29	3,63
488,49	0,28
488,69	3,08
488,90	0,22
489,10	-1,52
489,30	2,97
489,50	1,99
489,71	-0,22
489,91	-0,82
490,11	1,21
490,31	-1,40
490,52	2,63
490,72	-1,26
490,92	3,03
491,12	-2,22
491,32	1,49
491,53	1,07
491,73	1,93
491,93	-1,92
492,13	-0,12
492,33	-1,24
492,54	2,76
492,74	1,20
492,94	0,72
493,14	1,70
493,35	3,27
493,55	-0,42
493,75	-0,68
493,95	0,56
494,15	2,07
494,36	0,31
494,56	2,11
494,76	-1,51
494,96	3,72
495,16	-2,32
495,37	-2,96
495,57	-5,50
495,77	0,79
495,97	2,09
496,17	3,83
496,37	4,82
496,58	5,11
496,78	6,49
496,98	15,14
497,18	20,00
497,38	28,40
497,59	33,80
497,79	34,06
497,99	25,57
498,19	21,76
498,39	13,60
498,59	5,99
498,80	6,53
499,00	3,41
499,20	3,95
499,40	2,45
499,60	4,25
499,80	1,49
500,01	-1,17
500,21	2,05
500,41	0,88
500,61	0,63
500,81	1,88
501,01	2,27
501,22	-0,27
501,42	1,68
501,62	-1,29
501,82	-1,29
502,02	1,38
502,22	3,99
502,42	1,82
502,63	-2,60
502,83	1,92
503,03	-0,39
503,23	1,21
503,43	-0,14
503,63	2,47
503,83	1,37
504,04	1,53
504,24	1,00
504,44	-2,23
504,64	3,58
504,84	0,83
505,04	2,37
505,24	0,78
505,44	-0,83
505,65	1,38
505,85	1,38
506,05	-2,51
506,25	0,76
506,45	-1,07
506,65	2,08
506,85	-2,62
507,05	0,31
507,26	3,70
507,46	-0,06
507,66	0,15
507,86	-1,44
508,06	0,72
508,26	2,69
508,46	0,80
508,66	2,00
508,86	0,34
509,06	2,87
509,27	0,63
509,47	2,87
509,67	0,17
509,87	1,35
510,07	2,02
510,27	3,99
510,47	3,75
510,67	1,63
510,87	3,12
511,07	-0,87
511,28	0,69
511,48	0,10
511,68	1,61
511,88	1,31
512,08	-1,62
512,28	-1,23
512,48	1,72
512,68	-3,75
512,88	3,31
513,08	-0,22
513,28	1,45
513,48	3,89
513,68	0,03
513,89	5,96
514,09	6,06
514,29	6,88
514,49	8,85
514,69	9,70
514,89	8,62
515,09	8,53
515,29	4,17
515,49	4,47
515,69	0,55
515,89	2,68
516,09	2,72
516,29	1,32
516,49	-0,22
516,69	3,51
516,89	3,45
517,09	0,66
517,29	-1,27
517,50	0,49
517,70	1,19
517,90	1,64
518,10	1,02
518,30	3,90
518,50	1,10
518,70	0,20
518,90	2,71
519,10	-0,18
519,30	-1,05
519,50	0,39
519,70	0,51
519,90	-0,29
520,10	-2,35
520,30	3,30
520,50	2,55
520,70	0,48
520,90	1,59
521,10	-1,21
521,30	3,10
521,50	0,23
521,70	-2,07
521,90	-0,43
522,10	3,07
522,30	2,12
522,50	0,94
522,70	0,42
522,90	-2,12
523,10	3,25
523,30	0,57
523,50	-3,04
523,70	0,33
523,90	1,35
524,10	1,32
524,30	1,41
524,50	-2,20
524,70	0,43
524,90	1,73
525,10	2,66
525,30	0,12
525,50	1,18
525,70	-0,06
525,90	-2,07
526,10	2,95
526,30	1,22
526,50	2,06
526,70	3,14
526,90	0,23
527,10	3,75
527,30	3,96
527,50	0,83
527,70	4,01
527,90	4,49
528,10	2,57
528,30	-2,58
528,50	2,64
528,70	0,79
528,90	2,81
529,10	1,37
529,30	2,10
529,50	-0,74
529,70	-1,77
529,90	2,85
530,10	1,65
530,29	6,31
530,49	0,37
530,69	4,01
530,89	3,37
531,09	2,99
531,29	-0,27
531,49	0,34
531,69	2,26
531,89	3,85
532,09	1,89
532,29	2,14
532,49	3,48
532,69	0,03
532,89	1,54
533,09	-0,73
533,29	1,31
533,49	-0,29
533,68	1,26
533,88	0,14
534,08	-0,84
534,28	2,71
534,48	-0,01
534,68	-1,55
534,88	4,32
535,08	0,06
535,28	-0,78
535,48	0,45
535,68	2,12
535,88	1,59
536,08	-2,69
536,27	0,83
536,47	2,32
536,67	1,77
536,87	1,66
537,07	6,05
537,27	3,76
537,47	4,46
537,67	2,57
537,87	2,55
538,07	0,54
538,27	3,17
538,46	2,19
538,66	0,40
538,86	2,96
539,06	0,89
539,26	-0,39
539,46	-1,01
539,66	0,96
539,86	-0,32
540,06	2,75
540,25	4,26
540,45	-0,47
540,65	4,46
540,85	1,69
541,05	2,25
541,25	1,28
541,45	-1,67
541,65	0,27
541,85	3,44
542,04	1,00
542,24	2,60
542,44	1,84
542,64	-0,69
542,84	-0,52
543,04	3,72
543,24	2,60
543,43	4,85
543,63	1,25
543,83	0,25
544,03	-0,14
544,23	-0,93
544,43	1,77
544,63	2,28
544,82	5,43
545,02	1,61
545,22	-0,33
545,42	4,16
545,62	0,17
545,82	2,34
546,02	2,09
546,21	0,29
546,41	-0,59
546,61	3,11
546,81	0,49
547,01	-1,66
547,21	4,29
547,40	3,58
547,60	1,23
547,80	0,03
548,00	4,70
548,20	2,97
548,40	2,81
548,59	3,35
548,79	5,36
548,99	-0,11
549,19	2,86
549,39	1,47
549,59	2,91
549,78	4,89
549,98	0,95
550,18	0,06
550,38	5,22
550,58	-0,12
550,77	4,14
550,97	-0,60
551,17	4,19
551,37	2,86
551,57	1,97
551,76	0,25
551,96	1,36
552,16	5,20
552,36	3,35
552,56	-0,46
552,75	2,18
552,95	0,92
553,15	0,68
553,35	1,26
553,55	4,50
553,74	1,81
553,94	3,19
554,14	2,15
554,34	2,73
554,54	0,85
554,73	1,49
554,93	3,23
555,13	2,44
555,33	2,35
555,53	5,69
555,72	3,22
555,92	2,79
556,12	2,23
556,32	0,72
556,51	2,57
556,71	0,74
556,91	2,64
557,11	4,28
557,30	5,59
557,50	4,90
557,70	6,00
557,90	1,44
558,10	5,81
558,29	1,39
558,49	6,45
558,69	4,13
558,89	3,18
559,08	6,87
559,28	5,41
559,48	5,21
559,68	2,39
559,87	6,21
560,07	3,27
560,27	6,86
560,47	7,67
560,66	3,20
560,86	4,63
561,06	6,60
561,25	1,30
561,45	3,70
561,65	6,88
561,85	3,49
562,04	4,45
562,24	2,74
562,44	4,16
562,64	2,17
562,83	6,53
563,03	7,17
563,23	4,54
563,42	6,06
563,62	4,08
563,82	2,52
564,02	5,48
564,21	4,90
564,41	7,35
564,61	9,38
564,80	6,10
565,00	5,61
565,20	6,98
565,40	6,31
565,59	6,60
565,79	10,23
565,99	10,72
566,18	10,11
566,38	10,99
566,58	14,42
566,78	22,68
566,97	43,03
567,17	73,72
567,37	115,61
567,56	179,59
567,76	251,27
567,96	295,56
568,15	301,60
568,35	300,36
568,55	259,65
568,74	197,32
568,94	136,62
569,14	96,17
569,33	65,27
569,53	48,88
569,73	34,33
569,92	28,72
570,12	25,80
570,32	21,34
570,52	20,22
570,71	16,06
570,91	16,61
571,11	15,34
571,30	13,61
571,50	14,22
571,70	17,27
571,89	15,19
572,09	18,87
572,28	17,76
572,48	17,54
572,68	18,09
572,87	19,01
573,07	16,15
573,27	14,02
573,46	17,36
573,66	15,24
573,86	14,60
574,05	17,03
574,25	12,41
574,45	16,52
574,64	13,81
574,84	15,51
575,04	13,85
575,23	10,25
575,43	11,37
575,62	14,47
575,82	16,22
576,02	10,77
576,21	16,40
576,41	16,98
576,61	14,43
576,80	10,61
577,00	16,01
577,19	14,59
577,39	16,56
577,59	16,69
577,78	16,90
577,98	16,52
578,18	18,02
578,37	19,12
578,57	19,60
578,76	17,97
578,96	16,69
579,16	15,87
579,35	22,63
579,55	17,37
579,74	19,73
579,94	23,99
580,14	21,42
580,33	21,87
580,53	24,47
580,72	25,47
580,92	26,84
581,12	25,44
581,31	26,34
581,51	27,61
581,70	29,69
581,90	29,18
582,10	29,25
582,29	30,79
582,49	34,70
582,68	33,77
582,88	38,49
583,07	36,65
583,27	42,02
583,47	56,23
583,66	72,73
583,86	88,91
584,05	113,30
584,25	135,12
584,44	147,83
584,64	157,17
584,84	154,17
585,03	145,31
585,23	129,46
585,42	114,66
585,62	105,69
585,81	100,50
586,01	99,55
586,20	105,86
586,40	120,10
586,60	134,34
586,79	156,37
586,99	190,54
587,18	324,49
587,38	1218,60
587,57	5229,92
587,77	13912,68
587,96	26103,82
588,16	39067,85
588,35	51588,91
588,55	56467,41
588,75	57105,95
588,94	55750,81
589,14	53922,65
589,33	46283,97
589,53	33765,98
589,72	23042,53
589,92	15881,87
590,11	10112,45
590,31	6581,34
590,50	4496,81
590,70	3148,33
590,89	2226,90
591,09	1568,37
591,28	1115,00
591,48	757,99
591,67	497,34
591,87	337,30
592,06	242,80
592,26	184,80
592,45	149,62
592,65	128,77
592,84	108,22
593,04	99,42
593,23	90,24
593,43	82,20
593,62	76,08
593,82	73,94
594,01	66,66
594,21	65,60
594,40	61,39
594,60	55,06
594,79	56,90
594,99	55,08
595,18	51,44
595,38	51,24
595,57	49,46
595,77	47,04
595,96	42,33
596,16	41,44
596,35	36,11
596,55	37,02
596,74	38,37
596,94	33,30
597,13	36,34
597,33	32,05
597,52	33,17
597,72	32,13
597,91	33,47
598,11	30,34
598,30	28,51
598,50	28,96
598,69	31,12
598,88	26,64
599,08	27,46
599,27	27,49
599,47	28,58
599,66	27,94
599,86	24,83
600,05	22,86
600,25	23,48
600,44	21,08
600,64	23,08
600,83	20,74
601,02	21,67
601,22	21,49
601,41	19,66
601,61	18,98
601,80	20,24
602,00	19,32
602,19	22,24
602,38	18,43
602,58	16,52
602,77	22,67
602,97	17,12
603,16	18,39
603,36	18,73
603,55	17,71
603,74	17,46
603,94	17,97
604,13	20,02
604,33	12,70
604,52	17,24
604,72	20,04
604,91	19,17
605,10	11,89
605,30	17,38
605,49	14,00
605,69	13,75
605,88	11,71
606,07	17,19
606,27	11,61
606,46	14,70
606,66	14,02
606,85	10,45
607,04	11,63
607,24	10,96
607,43	12,51
607,63	10,95
607,82	13,27
608,01	10,88
608,21	11,68
608,40	14,15
608,60	7,58
608,79	12,00
608,98	11,80
609,18	12,11
609,37	12,60
609,57	11,24
609,76	13,45
609,95	11,88
610,15	9,54
610,34	9,91
610,53	10,85
610,73	11,25
610,92	9,63
611,11	8,05
611,31	10,67
611,50	7,32
611,70	9,62
611,89	9,03
612,08	10,99
612,28	10,13
612,47	9,02
612,66	9,01
612,86	7,85
613,05	9,48
613,24	7,54
613,44	8,48
613,63	10,84
613,82	9,48
614,02	9,22
614,21	13,58
614,41	25,21
614,60	29,31
614,79	39,12
614,99	51,73
615,18	62,21
615,37	65,18
615,57	65,25
615,76	54,95
615,95	45,95
616,15	33,21
616,34	29,81
616,53	20,74
616,73	12,69
616,92	12,51
617,11	13,93
617,30	10,48
617,50	9,51
617,69	11,94
617,88	6,01
618,08	8,70
618,27	8,78
618,46	7,30
618,66	8,66
618,85	5,45
619,04	5,43
619,24	7,16
619,43	3,05
619,62	7,29
619,82	6,53
620,01	5,40
620,20	4,97
620,39	3,23
620,59	4,73
620,78	5,95
620,97	4,84
621,17	7,92
621,36	5,32
621,55	5,24
621,74	4,12
621,94	3,69
622,13	3,55
622,32	5,57
622,52	5,48
622,71	2,44
622,90	4,66
623,09	3,62
623,29	7,07
623,48	2,17
623,67	5,55
623,86	5,59
624,06	5,15
624,25	4,75
624,44	3,89
624,64	4,32
624,83	5,07
625,02	0,71
625,21	1,87
625,41	4,01
625,60	5,70
625,79	0,02
625,98	5,79
626,18	5,33
626,37	3,55
626,56	4,52
626,75	-0,22
626,95	3,56
627,14	6,97
627,33	6,86
627,52	2,82
627,72	1,13
627,91	5,20
628,10	3,84
628,29	-0,22
628,49	2,91
628,68	4,44
628,87	2,35
629,06	4,70
629,25	1,03
629,45	1,55
629,64	-0,73
629,83	1,08
630,02	4,12
630,22	2,46
630,41	5,47
630,60	1,76
630,79	3,24
630,98	3,76
631,18	4,28
631,37	1,97
631,56	2,30
631,75	3,50
631,94	2,55
632,14	2,37
632,33	2,14
632,52	2,02
632,71	1,91
632,90	2,53
633,10	4,04
633,29	3,11
633,48	1,39
633,67	0,49
633,86	4,02
634,06	7,86
634,25	5,18
634,44	3,20
634,63	0,05
634,82	0,82
635,02	1,60
635,21	0,08
635,40	-2,67
635,59	5,28
635,78	1,11
635,97	0,22
636,17	4,19
636,36	1,87
636,55	2,24
636,74	2,22
636,93	3,06
637,12	1,95
637,32	1,04
637,51	3,41
637,70	1,06
637,89	3,46
638,08	1,40
638,27	3,07
638,47	1,77
638,66	2,49
638,85	3,05
639,04	-0,91
639,23	-0,56
639,42	1,01
639,62	2,50
639,81	3,67
640,00	0,39
640,19	4,79
640,38	1,35
640,57	1,82
640,76	2,07
640,95	-0,31
641,15	0,67
641,34	3,52
641,53	4,45
641,72	3,19
641,91	-0,06
642,10	1,91
642,29	1,72
642,49	-0,61
642,68	1,20
642,87	1,75
643,06	2,51
643,25	2,15
643,44	-0,49
643,63	-1,97
643,82	-0,02
644,01	1,41
644,21	0,66
644,40	0,44
644,59	1,55
644,78	3,42
644,97	2,49
645,16	2,29
645,35	0,67
645,54	-3,39
645,73	0,15
645,92	6,12
646,12	2,24
646,31	-0,58
646,50	1,58
646,69	2,92
646,88	0,65
647,07	2,47
647,26	3,94
647,45	-0,39
647,64	2,69
647,83	-3,00
648,02	1,79
648,22	1,02
648,41	1,88
648,60	3,32
648,79	1,07
648,98	0,80
649,17	1,91
649,36	1,21
649,55	0,99
649,74	0,44
649,93	-1,43
650,12	1,32
650,31	1,13
650,50	1,66
650,69	1,27
650,88	0,89
651,08	0,72
651,27	2,93
651,46	2,48
651,65	3,88
651,84	2,55
652,03	-3,45
652,22	-1,66
652,41	-0,50
652,60	1,52
652,79	0,81
652,98	0,18
653,17	3,56
653,36	0,70
653,55	0,06
653,74	-1,16
653,93	0,98
654,12	2,80
654,31	2,45
654,50	1,72
654,69	1,63
654,88	-1,76
655,07	1,07
655,26	-1,59
655,45	0,22
655,64	0,21
655,83	-1,02
656,02	-0,83
656,21	-2,00
656,40	-0,12
656,59	-0,56
656,78	-1,47
656,97	0,08
657,17	3,43
657,36	-2,27
657,55	0,87
657,74	0,64
657,93	-2,82
658,12	-1,61
658,31	2,18
658,50	-0,62
658,69	-2,38
658,87	-0,24
659,06	-0,60
659,25	1,38
659,44	0,78
659,63	2,19
659,82	1,72
660,01	1,54
660,20	-3,93
660,39	1,94
660,58	-0,05
660,77	1,68
660,96	-1,77
661,15	0,73
661,34	-1,52
661,53	-0,67
661,72	-1,99
661,91	-0,64
662,10	0,58
662,29	-0,10
662,48	0,40
662,67	-2,67
662,86	3,38
663,05	0,15
663,24	-1,65
663,43	-2,45
663,62	-1,84
663,81	-1,74
664,00	1,01
664,19	0,57
664,38	-1,07
664,57	-0,98
664,76	-1,11
664,94	-0,91
665,13	-1,43
665,32	0,82
665,51	-0,72
665,70	-0,35
665,89	0,29
666,08	0,42
666,27	2,54
666,46	1,42
666,65	1,08
666,84	0,12
667,03	3,55
667,22	0,66
667,41	-0,23
667,60	-1,20
667,78	-1,75
667,97	-3,83
668,16	-0,97
668,35	-0,50
668,54	1,97
668,73	0,39
668,92	-0,79
669,11	-1,18
669,30	1,49
669,49	-2,71
669,68	0,06
669,86	-0,47
670,05	-2,31
670,24	-1,79
670,43	-3,66
670,62	0,01
670,81	3,65
671,00	2,12
671,19	0,76
671,38	-0,66
671,57	-3,21
671,75	-1,79
671,94	-2,93
672,13	0,26
672,32	0,00
672,51	-0,73
672,70	-1,68
672,89	1,54
673,08	-0,83
673,26	-2,13
673,45	-1,86
673,64	-0,44
673,83	1,34
674,02	-1,96
674,21	-0,50
674,40	0,90
674,59	0,12
674,77	3,11
674,96	0,77
675,15	3,15
675,34	-0,12
675,53	1,07
675,72	-1,88
675,91	4,16
676,09	2,02
676,28	-0,07
676,47	2,56
676,66	-0,91
676,85	-3,69
677,04	-1,47
677,22	0,69
677,41	-0,59
677,60	-4,34
677,79	-2,77
677,98	0,41
678,17	-1,72
678,36	2,94
678,54	1,30
678,73	-1,07
678,92	-3,27
679,11	-3,13
679,30	0,78
679,48	-0,01
679,67	0,70
679,86	-0,63
680,05	-1,55
680,24	0,97
680,43	-1,45
680,61	-1,75
680,80	-1,22
680,99	0,98
681,18	-2,93
681,37	-2,55
681,55	0,65
681,74	-2,14
681,93	-2,73
682,12	-5,73
682,31	-0,98
682,49	0,13
682,68	-0,54
682,87	-2,56
683,06	-0,35
683,25	-1,11
683,43	-1,26
683,62	-4,82
683,81	-2,19
684,00	0,23
684,19	-1,36
684,37	-2,14
684,56	0,75
684,75	-0,87
684,94	-1,16
685,12	-2,74
685,31	-0,57
685,50	-1,02
685,69	-2,78
685,88	-0,83
686,06	0,20
686,25	-0,24
686,44	0,45
686,63	0,19
686,81	2,65
687,00	0,65
687,19	1,41
687,38	1,18
687,56	-2,06
687,75	0,70
687,94	-2,39
688,13	0,08
688,31	-4,17
688,50	1,65
688,69	1,27
688,88	-0,70
689,06	1,62
689,25	-1,65
689,44	-0,84
689,63	2,53
689,81	-1,69
690,00	-2,89
690,19	1,77
690,38	-1,71
690,56	-2,33
690,75	-0,92
690,94	-4,47
691,13	-3,27
691,31	-1,51
691,50	-1,84
691,69	-1,01
691,87	-3,22
692,06	-1,97
692,25	-2,10
692,44	-3,84
692,62	-1,16
692,81	-2,11
693,00	-1,97
693,18	-0,71
693,37	0,34
693,56	-1,63
693,75	-1,86
693,93	-3,59
694,12	-4,33
694,31	-2,16
694,49	-1,46
694,68	-1,12
694,87	0,23
695,05	3,37
695,24	26,89
695,43	61,50
695,62	102,77
695,80	132,69
695,99	141,16
696,18	142,98
696,36	117,53
696,55	81,62
696,74	51,16
696,92	35,12
697,11	24,88
697,30	14,28
697,48	8,62
697,67	8,48
697,86	2,80
698,04	1,69
698,23	5,02
698,42	-0,32
698,60	4,55
698,79	1,67
698,98	-3,38
699,16	-1,68
699,35	-1,56
699,54	-1,78
699,72	-4,29
699,91	-0,79
700,10	-1,39
700,28	0,22
700,47	-3,21
700,66	-2,44
700,84	-3,54
701,03	0,83
701,21	-3,15
701,40	-2,88
701,59	-2,62
701,77	-1,31
701,96	-1,86
702,15	-1,79
702,33	-1,18
702,52	3,90
702,71	0,37
702,89	-0,66
703,08	0,35
703,26	-2,32
703,45	-1,31
703,64	-2,38
703,82	-0,60
704,01	-0,04
704,20	-0,17
704,38	1,52
704,57	-4,03
704,75	-1,59
704,94	-4,43
705,13	2,45
705,31	4,95
705,50	19,22
705,68	40,39
705,87	65,25
706,06	80,85
706,24	83,54
706,43	76,10
706,61	54,81
706,80	38,45
706,99	26,51
707,17	15,17
707,36	11,51
707,54	8,84
707,73	7,03
707,92	6,76
708,10	1,91
708,29	-1,49
708,47	1,51
708,66	-2,39
708,84	0,28
709,03	-2,10
709,22	0,49
709,40	-1,40
709,59	-2,97
709,77	-0,92
709,96	-3,43
710,14	-4,20
710,33	-4,79
710,52	-3,61
710,70	-3,01
710,89	-0,31
711,07	-0,45
711,26	-3,05
711,44	-1,54
711,63	-3,28
711,81	-3,07
712,00	2,63
712,19	-0,94
712,37	-2,01
712,56	-2,06
712,74	-4,18
712,93	1,20
713,11	-2,22
713,30	-0,00
713,48	1,74
713,67	0,64
713,85	7,74
714,04	6,02
714,22	7,01
714,41	6,93
714,59	6,45
714,78	4,78
714,97	1,84
715,15	3,52
715,34	2,63
715,52	1,19
715,71	-1,22
715,89	-0,85
716,08	-2,42
716,26	-0,40
716,45	-0,25
716,63	0,30
716,82	-0,43
717,00	-5,17
717,19	0,37
717,37	-1,58
717,56	-3,86
717,74	0,46
717,93	0,44
718,11	-4,74
718,30	-2,71
718,48	1,78
718,67	0,72
718,85	-1,82
719,04	-5,48
719,22	-4,08
719,41	0,60
719,59	-1,47
719,78	-1,54
719,96	-4,47
720,15	1,12
720,33	-1,34
720,52	-1,67
720,70	-0,25
720,88	3,13
721,07	-2,01
721,25	-0,90
721,44	-2,03
721,62	-0,70
721,81	-0,20
721,99	-2,84
722,18	-1,86
722,36	-3,14
722,55	-2,29
722,73	-3,18
722,92	-1,16
723,10	-1,71
723,28	-2,04
723,47	0,31
723,65	1,85
723,84	-0,53
724,02	-2,04
724,21	-3,33
724,39	-3,20
724,58	0,15
724,76	-0,30
724,94	0,70
725,13	-1,62
725,31	-2,03
725,50	-0,06
725,68	-0,80
725,87	0,26
726,05	8,22
726,23	10,95
726,42	21,06
726,60	31,29
726,79	29,57
726,97	23,56
727,16	21,65
727,34	16,57
727,52	10,61
727,71	4,95
727,89	1,51
728,08	2,11
728,26	3,69
728,44	-1,39
728,63	-1,99
728,81	0,24
729,00	-1,99
729,18	-0,77
729,36	-0,74
729,55	-1,95
729,73	1,44
729,92	-1,52
730,10	0,76
730,28	3,06
730,47	0,65
730,65	-3,23
730,84	-2,46
731,02	2,38
731,20	5,47
731,39	-4,30
731,57	-2,92
731,75	0,18
731,94	-1,39
732,12	-2,74
732,31	-5,62
732,49	-0,96
732,67	-1,54
732,86	-3,11
733,04	-1,35
733,22	-2,13
733,41	-2,54
733,59	-0,46
733,78	-0,27
733,96	-2,08
734,14	-2,25
734,33	-2,41
734,51	1,22
734,69	0,49
734,88	-0,10
735,06	-4,80
735,24	-1,34
735,43	0,58
735,61	-1,54
735,79	-3,50
735,98	-0,22
736,16	2,79
736,34	-0,62
736,53	0,02
736,71	0,07
736,89	7,10
737,08	20,24
737,26	55,35
737,44	91,23
737,63	125,84
737,81	135,00
737,99	132,05
738,18	114,08
738,36	85,57
738,54	55,47
738,73	32,07
738,91	21,40
739,09	13,53
739,28	12,90
739,46	8,55
739,64	3,37
739,82	-0,58
740,01	0,57
740,19	-0,61
740,37	-0,58
740,56	-4,53
740,74	0,11
740,92	0,02
741,11	-1,63
741,29	-2,10
741,47	-1,61
741,65	-0,45
741,84	0,71
742,02	-2,33
742,20	-3,17
742,39	-1,45
742,57	0,60
742,75	-1,47
742,93	-1,70
743,12	-1,36
743,30	-2,19
743,48	-1,25
743,67	-3,66
743,85	-2,08
744,03	0,67
744,21	-1,70
744,40	-0,28
744,58	-2,02
744,76	-2,75
744,94	0,61
745,13	-1,39
745,31	-3,30
745,49	-1,57
745,67	-2,27
745,86	-2,12
746,04	-1,06
746,22	0,23
746,40	0,67
746,59	-0,31
746,77	-0,46
746,95	0,42
747,13	-0,24
747,32	-2,11
747,50	-5,62
747,68	-0,70
747,86	1,23
748,05	-1,31
748,23	0,56
748,41	-2,12
748,59	2,04
748,77	3,51
748,96	3,55
749,14	22,79
749,32	48,49
749,50	79,93
749,69	107,04
749,87	114,57
750,05	113,30
750,23	108,80
750,41	107,40
750,60	114,97
750,78	124,81
750,96	128,09
751,14	110,20
751,32	83,27
751,51	54,31
751,69	37,59
751,87	21,00
752,05	12,03
752,23	9,09
752,42	7,00
752,60	1,64
752,78	0,05
752,96	1,48
753,14	0,89
753,33	0,71
753,51	-0,56
753,69	-0,74
753,87	-0,72
754,05	0,68
754,23	-2,17
754,42	1,45
754,60	-0,39
754,78	-4,75
754,96	2,86
755,14	-2,23
755,32	-0,91
755,51	-2,44
755,69	-2,43
755,87	0,84
756,05	0,83
756,23	-3,83
756,41	1,90
756,60	0,45
756,78	-4,46
756,96	-3,48
757,14	-1,64
757,32	-1,42
757,50	-1,44
757,68	0,79
757,87	-0,65
758,05	2,69
758,23	-0,46
758,41	-0,01
758,59	-1,78
758,77	-1,51
758,95	-0,04
759,14	-1,37
759,32	-1,45
759,50	-0,24
759,68	1,11
759,86	0,12
760,04	0,87
760,22	1,10
760,40	2,92
760,59	1,93
760,77	2,04
760,95	-1,29
761,13	1,34
761,31	-2,95
761,49	3,98
761,67	2,47
761,85	2,49
762,03	24,74
762,22	93,17
762,40	238,46
762,58	432,71
762,76	610,53
762,94	667,40
763,12	644,62
763,30	541,77
763,48	381,90
763,66	233,37
763,84	139,81
764,02	83,37
764,21	49,93
764,39	29,73
764,57	20,46
764,75	15,17
764,93	10,02
765,11	12,32
765,29	21,29
765,47	32,52
765,65	50,73
765,83	61,69
766,01	62,00
766,19	54,38
766,37	46,51
766,56	29,82
766,74	16,05
766,92	6,95
767,10	0,50
767,28	5,10
767,46	2,78
767,64	1,07
767,82	2,04
768,00	-0,93
768,18	-0,63
768,36	1,19
768,54	3,79
768,72	9,20
768,90	15,36
769,08	26,55
769,26	34,84
769,44	33,94
769,62	31,77
769,80	25,56
769,98	15,02
770,16	7,57
770,34	3,53
770,52	2,93
770,71	2,96
770,89	1,77
771,07	25,89
771,25	67,66
771,43	131,17
771,61	201,49
771,79	245,95
771,97	257,14
772,15	229,77
772,33	163,77
772,51	100,17
772,69	56,49
772,87	34,54
773,05	18,85
773,23	12,64
773,41	5,99
773,59	4,61
773,77	3,35
773,95	0,76
774,13	1,74
774,31	-0,56
774,49	1,68
774,67	0,01
774,85	-1,06
775,03	1,02
775,21	-0,53
775,39	-3,18
775,57	-2,76
775,75	-2,20
775,93	-2,96
776,10	-1,01
776,28	-1,83
776,46	-1,02
776,64	-0,88
776,82	-1,37
777,00	-0,13
777,18	-1,93
777,36	-1,09
777,54	-4,82
777,72	-1,32
777,90	1,66
778,08	-2,39
778,26	1,28
778,44	-1,00
778,62	-2,54
778,80	-4,52
778,98	-2,84
779,16	-3,07
779,34	-2,79
779,52	-0,83
779,70	-0,92
779,88	-0,60
780,05	-2,85
780,23	-2,46
780,41	1,36
780,59	2,65
780,77	1,90
780,95	-3,73
781,13	-1,64
781,31	-0,41
781,49	-2,37
781,67	-4,93
781,85	-0,33
782,03	0,47
782,21	-1,67
782,39	-2,44
782,56	-3,96
782,74	-2,65
782,92	-4,02
783,10	1,38
783,28	-2,68
783,46	-2,23
783,64	1,25
783,82	0,74
784,00	-1,00
784,18	-1,07
784,35	-6,02
784,53	-0,04
784,71	1,92
784,89	0,14
785,07	-0,14
785,25	0,03
785,43	-2,13
785,61	-1,65
785,79	-2,16
785,96	0,31
786,14	-3,05
786,32	2,56
786,50	-3,13
786,68	-0,11
786,86	-0,32
787,04	-1,29
787,22	-2,86
787,39	1,64
787,57	-1,29
787,75	-1,64
787,93	-1,88
788,11	-0,81
788,29	-2,96
788,47	1,83
788,65	-3,94
788,82	2,59
789,00	-1,03
789,18	0,24
789,36	-1,53
789,54	-1,32
789,72	-2,66
789,89	0,89
790,07	-4,41
790,25	-0,42
790,43	-0,46
790,61	-3,54
790,79	1,19
790,96	3,12
791,14	-0,87
791,32	-1,00
791,50	-0,08
791,68	-0,93
791,86	-0,33
792,03	0,47
792,21	-0,17
792,39	-0,68
792,57	0,37
792,75	-1,20
792,93	-2,60
793,10	-2,90
793,28	1,87
793,46	12,53
793,64	27,88
793,82	67,17
793,99	102,15
794,17	124,38
794,35	127,27
794,53	107,28
794,71	74,28
794,88	47,55
795,06	19,88
795,24	13,05
795,42	5,13
795,60	4,48
795,77	3,31
795,95	4,82
796,13	2,05
796,31	-0,26
796,49	0,36
796,66	3,69
796,84	-0,60
797,02	-1,10
797,20	-1,74
797,37	1,00
797,55	-0,04
797,73	-0,50
797,91	1,56
798,08	1,62
798,26	-0,60
798,44	0,33
798,62	-1,62
798,80	0,47
798,97	-2,69
799,15	4,73
799,33	7,31
799,51	24,38
799,68	43,81
799,86	62,03
800,04	63,65
800,22	72,43
800,39	95,18
800,57	111,38
800,75	122,39
800,93	112,16
801,10	104,24
801,28	85,06
801,46	57,70
801,63	30,18
801,81	16,84
801,99	5,74
802,17	2,55
802,34	1,51
802,52	3,90
802,70	0,16
802,88	0,90
803,05	3,98
803,23	1,67
803,41	4,62
803,58	3,07
803,76	1,81
803,94	3,43
804,12	-1,24
804,29	1,80
804,47	0,02
804,65	1,53
804,82	0,42
805,00	0,86
805,18	-5,49
805,35	1,35
805,53	0,95
805,71	-0,13
805,89	3,63
806,06	2,30
806,24	1,21
806,42	0,78
806,59	-1,31
806,77	-0,34
806,95	-0,38
807,12	-0,65
807,30	4,50
807,48	1,76
807,65	1,36
807,83	0,57
808,01	1,69
808,18	2,83
808,36	-0,59
808,54	3,27
808,71	3,60
808,89	7,07
809,07	20,81
809,24	53,78
809,42	95,23
809,60	130,14
809,77	144,55
809,95	142,10
810,13	142,03
810,30	175,70
810,48	268,34
810,66	386,31
810,83	458,41
811,01	473,99
811,18	425,41
811,36	325,99
811,54	189,58
811,71	97,29
811,89	48,39
812,07	33,41
812,24	24,92
812,42	17,03
812,59	13,09
812,77	10,94
812,95	10,03
813,12	11,39
813,30	6,41
813,48	8,51
813,65	7,00
813,83	7,24
814,00	3,57
814,18	3,59
814,36	2,88
814,53	4,11
814,71	6,70
814,88	3,04
815,06	2,50
815,24	6,78
815,41	2,78
815,59	4,85
815,76	4,31
815,94	3,46
816,12	5,46
816,29	8,18
816,47	5,23
816,64	10,23
816,82	18,74
817,00	58,93
817,17	145,80
817,35	267,16
817,52	367,68
817,70	427,97
817,87	425,08
818,05	399,77
818,23	386,70
818,40	467,37
818,58	592,49
818,75	723,50
818,93	740,91
819,10	677,94
819,28	529,14
819,46	343,57
819,63	181,48
819,81	97,28
819,98	60,35
820,16	42,58
820,33	34,25
820,51	28,73
820,68	23,90
820,86	21,24
821,03	16,99
821,21	15,18
821,39	11,45
821,56	8,21
821,74	7,12
821,91	9,20
822,09	5,76
822,26	8,12
822,44	4,90
822,61	5,01
822,79	2,98
822,96	1,27
823,14	0,56
823,31	-0,02
823,49	1,54
823,66	1,57
823,84	2,41
824,01	3,27
824,19	0,48
824,36	4,30
824,54	-0,04
824,71	2,46
824,89	5,02
825,06	7,61
825,24	19,12
825,41	35,45
825,59	58,23
825,76	64,24
825,94	65,59
826,11	56,34
826,29	41,86
826,46	26,63
826,64	15,10
826,81	8,99
826,99	6,68
827,16	4,59
827,34	2,37
827,51	-0,02
827,69	-0,51
827,86	-1,85
828,04	1,33
828,21	-0,78
828,39	-1,45
828,56	-0,61
828,74	1,37
828,91	-2,40
829,09	1,61
829,26	0,83
829,43	-1,55
829,61	-0,23
829,78	0,34
829,96	-2,44
830,13	4,23
830,31	1,00
830,48	-1,43
830,66	-0,19
830,83	0,71
831,01	-1,62
831,18	1,49
831,35	0,10
831,53	3,88
831,70	0,09
831,88	1,09
832,05	-0,65
832,23	-3,05
832,40	0,71
832,57	1,59
832,75	-0,69
832,92	-2,00
833,10	1,69
833,27	0,01
833,45	-1,89
833,62	-1,59
833,79	-1,84
833,97	1,40
834,14	-3,71
834,32	1,10
834,49	0,26
834,66	-0,51
834,84	-1,06
835,01	0,67
835,19	1,43
835,36	-1,08
835,53	1,33
835,71	0,28
835,88	-1,53
836,06	-0,04
836,23	-2,77
836,40	-1,79
836,58	-3,04
836,75	1,40
836,93	-3,18
837,10	-0,03
837,27	0,36
837,45	-2,93
837,62	-1,24
837,79	0,12
837,97	-0,92
838,14	1,19
838,32	0,19
838,49	-2,41
838,66	2,48
838,84	-2,26
839,01	0,69
839,18	6,33
839,36	8,00
839,53	11,92
839,70	28,34
839,88	42,50
840,05	55,02
840,23	61,41
840,40	59,37
840,57	52,91
840,75	41,69
840,92	30,01
841,09	21,22
841,27	32,54
841,44	43,30
841,61	61,65
841,79	74,18
841,96	78,86
842,13	72,56
842,31	61,31
842,48	43,26
842,65	25,26
842,83	13,94
843,00	8,39
843,17	5,40
843,35	4,13
843,52	5,05
843,69	5,09
843,86	2,13
844,04	3,11
844,21	2,00
844,38	3,85
844,56	1,78
844,73	-0,76
844,90	0,50
845,08	1,01
845,25	0,70
845,42	-0,74
845,60	1,00
845,77	0,22
845,94	0,08
846,11	0,72
846,29	-3,23
846,46	1,88
846,63	-0,44
846,81	0,66
846,98	1,05
847,15	-1,06
847,32	-1,86
847,50	1,62
847,67	-4,05
847,84	-4,09
848,01	-2,75
848,19	-1,07
848,36	3,48
848,53	-0,83
848,71	1,11
848,88	-1,31
849,05	-0,11
849,22	1,79
849,40	-3,00
849,57	-1,38
849,74	3,08
849,91	1,91
850,09	-3,53
850,26	-1,57
850,43	-1,27
850,60	-0,74
850,78	0,82
850,95	1,02
851,12	6,91
851,29	13,71
851,47	10,00
851,64	16,72
851,81	18,31
851,98	17,31
852,15	7,13
852,33	5,90
852,50	7,44
852,67	0,89
852,84	1,84
853,02	-1,78
853,19	2,53
853,36	1,14
853,53	4,96
853,70	0,02
853,88	-0,06
854,05	1,44
854,22	-1,16
854,39	0,57
854,56	-0,77
854,74	3,24
854,91	4,60
855,08	1,77
855,25	-1,16
855,42	-0,86
855,60	-0,79
855,77	1,84
855,94	-1,42
856,11	0,30
856,28	-0,63
856,46	-1,66
856,63	-0,54
856,80	2,51
856,97	-4,46
857,14	-0,75
857,31	4,31
857,49	-4,03
857,66	1,14
857,83	-0,24
858,00	0,35
858,17	-0,78
858,34	-2,97
858,52	-4,39
858,69	1,36
858,86	-0,12
859,03	1,11
859,20	-0,58
859,37	0,75
859,55	-0,12
859,72	0,80
859,89	-0,64
860,06	-1,18
860,23	-1,05
860,40	1,96
860,57	2,08
860,75	0,16
860,92	-2,28
861,09	-0,38
861,26	-2,23
861,43	1,43
861,60	2,51
861,77	4,07
861,95	-0,66
862,12	-3,27
862,29	0,52
862,46	0,81
862,63	-1,21
862,80	0,17
862,97	-0,12
863,14	-1,28
863,31	0,65
863,49	-1,97
863,66	-0,71
863,83	-2,46
864,00	-3,34
864,17	-0,60
864,34	0,32
864,51	-0,01
864,68	-2,68
864,85	-2,44
865,02	1,29
865,20	-4,59
865,37	-2,79
865,54	-0,78
865,71	-0,49
865,88	-0,83
866,05	2,01
866,22	-1,38
866,39	5,40
866,56	3,75
866,73	0,58
866,90	4,56
867,07	-0,34
867,25	-0,84
867,42	-4,95
867,59	0,43
867,76	-2,15
867,93	0,63
868,10	-1,35
868,27	-0,71
868,44	-2,20
868,61	-4,28
868,78	1,20
868,95	-1,00
869,12	2,06
869,29	-1,54
869,46	-1,28
869,63	-4,33
869,80	-2,59
869,97	3,04
870,14	3,96
870,32	0,42
870,49	2,15
870,66	1,49
870,83	-0,13
871,00	0,05
871,17	0,46
871,34	3,26
871,51	-1,93
871,68	0,06
871,85	0,52
872,02	-1,19
872,19	1,77
872,36	1,55
872,53	-2,08
872,70	-2,04
872,87	1,00
873,04	0,45
873,21	0,51
873,38	0,49
873,55	-0,27
873,72	1,64
873,89	1,61
874,06	-1,18
874,23	1,07
874,40	-5,18
874,57	-1,42
874,74	-3,82
874,91	0,44
875,08	-2,42
875,25	-1,82
875,42	0,66
875,59	0,16
875,76	0,68
875,93	-3,29
876,10	-2,10
876,27	0,51
876,44	2,01
876,61	-2,97
876,78	-1,65
876,95	0,91
877,12	0,12
877,29	-0,52
877,46	1,32
877,62	0,93
877,79	-1,97
877,96	-0,04
878,13	2,71
878,30	0,12
878,47	-2,84
878,64	0,34
878,81	-2,56
878,98	-1,89
879,15	-1,69
879,32	1,87
879,49	-1,98
879,66	-1,50
879,83	-0,51
880,00	0,35
880,17	1,86
880,34	-3,15
880,51	-1,97
880,67	-0,62
880,84	-0,25
881,01	-0,98
881,18	-1,55
881,35	-2,69
881,52	-1,26
881,69	0,52
881,86	-0,95
882,03	-0,55
882,20	-5,59
882,37	1,56
882,54	-2,73
882,70	-0,05
882,87	0,68
883,04	1,16
883,21	1,03
883,38	-1,43
883,55	2,48
883,72	-0,68
883,89	0,73
884,06	-2,58
884,23	-1,64
884,39	0,57
884,56	-2,08
884,73	-1,39
884,90	2,87
885,07	0,03
885,24	-4,23
885,41	-4,09
885,58	-1,64
885,74	-1,89
885,91	3,07
886,08	-1,76
886,25	0,94
886,42	0,38
886,59	-1,21
886,76	1,08
886,93	-2,00
887,09	-1,63
887,26	-0,28
887,43	-2,85
887,60	-1,76
887,77	-0,84
887,94	-1,08
888,10	-0,92
888,27	0,62
888,44	3,41
888,61	3,13
888,78	0,86
888,95	-0,08
889,12	1,28
889,28	-0,98
889,45	-0,84
889,62	-0,18
889,79	1,65
889,96	-0,77
890,13	-1,78
890,29	-0,09
890,46	-2,81
890,63	2,44
890,80	-1,09
890,97	-0,83
891,13	-1,79
891,30	-0,40
891,47	-0,72
891,64	1,41
891,81	2,04
891,98	2,62
892,14	-1,39
892,31	-2,00
892,48	2,79
892,65	-2,51
892,82	0,12
892,98	-1,52
893,15	1,24
893,32	-2,67
