SpectraSuite Datei
++++++++++++++++++++++++++++++++++++
Datum: Tue Mar 08 10:28:28 CET 2016
Benutzer: Admin
Dark-Spektrum vorhanden: Ja
Referenz-Spektrum vorhanden: Nein
Zahl der probierten Teilspektren: 1
Spektrometer: USB4F05832
Integrationszeit (usec): 225000 (USB4F05832)
Spektren Durchschnitt berechnet: 18 (USB4F05832)
Boxcar Glï¿½ttung: 0 (USB4F05832)
Dunkelstromkorrektur: Nein (USB4F05832)
Puls/Lampe aktiviert: Nein (USB4F05832)
Correct for Detector Non-linearity: Nein (USB4F05832)
Streulichtkorrektur: Nein (USB4F05832)
Anzahl Pixel in verarbeitetem Spektrum: 3648
>>>>>Begin Processed Spectral Data<<<<<
177,54	-8,99
177,75	-8,99
177,97	-8,99
178,19	4,32
178,41	8,76
178,63	14,11
178,85	-0,46
179,07	0,34
179,29	-1,93
179,51	0,57
179,73	5,12
179,95	15,70
180,17	6,71
180,39	-6,83
180,61	35,50
180,83	-5,69
181,05	10,47
181,27	12,17
181,49	196,26
181,71	299,00
181,92	335,64
182,14	325,51
182,36	323,81
182,58	335,18
182,80	305,49
183,02	342,81
183,24	312,43
183,46	308,79
183,68	297,87
183,90	308,56
184,12	297,64
184,34	314,93
184,56	325,74
184,78	297,52
185,00	281,14
185,21	307,20
185,43	312,09
185,65	325,40
185,87	324,15
186,09	341,56
186,31	322,44
186,53	312,32
186,75	316,75
186,97	328,02
187,19	292,18
187,41	304,01
187,63	296,96
187,84	309,93
188,06	324,94
188,28	340,42
188,50	329,15
188,72	316,52
188,94	309,13
189,16	301,39
189,38	299,46
189,60	311,41
189,82	320,17
190,03	332,57
190,25	327,68
190,47	316,18
190,69	294,11
190,91	334,05
191,13	318,80
191,35	325,74
191,57	334,62
191,79	345,65
192,01	330,29
192,22	320,28
192,44	348,27
192,66	324,15
192,88	366,36
193,10	347,36
193,32	373,30
193,54	376,60
193,76	315,96
193,98	352,93
194,19	331,77
194,41	329,84
194,63	333,14
194,85	348,15
195,07	364,31
195,29	383,08
195,51	387,63
195,73	400,49
195,94	424,95
196,16	431,89
196,38	405,95
196,60	366,59
196,82	369,20
197,04	344,40
197,26	326,20
197,48	338,83
197,69	320,05
197,91	337,12
198,13	349,41
198,35	300,25
198,57	308,67
198,79	334,73
199,01	305,26
199,22	323,12
199,44	344,74
199,66	347,24
199,88	338,60
200,10	339,85
200,32	326,88
200,54	340,08
200,75	344,17
200,97	334,62
201,19	329,38
201,41	351,11
201,63	356,46
201,85	344,74
202,06	342,81
202,28	334,62
202,50	320,96
202,72	329,04
202,94	306,29
203,16	327,68
203,38	320,17
203,59	314,14
203,81	330,75
204,03	335,07
204,25	347,24
204,47	343,60
204,69	330,29
204,90	340,53
205,12	316,75
205,34	299,57
205,56	332,57
205,78	365,11
206,00	323,01
206,21	329,38
206,43	321,99
206,65	351,57
206,87	333,93
207,09	339,85
207,30	352,71
207,52	326,76
207,74	339,17
207,96	316,75
208,18	345,08
208,40	327,11
208,61	360,90
208,83	329,27
209,05	345,88
209,27	331,09
209,49	352,36
209,70	328,47
209,92	322,10
210,14	319,60
210,36	314,36
210,58	308,79
210,79	334,39
211,01	302,87
211,23	318,00
211,45	339,17
211,67	336,32
211,88	315,84
212,10	349,29
212,32	317,44
212,54	332,34
212,76	345,54
212,97	341,56
213,19	324,83
213,41	317,32
213,63	306,74
213,85	308,11
214,06	334,05
214,28	314,36
214,50	313,91
214,72	344,40
214,94	327,79
215,15	358,17
215,37	327,33
215,59	335,87
215,81	324,60
216,02	319,37
216,24	327,45
216,46	324,49
216,68	342,12
216,90	333,02
217,11	311,29
217,33	307,76
217,55	325,97
217,77	335,53
217,98	344,63
218,20	344,86
218,42	331,32
218,64	349,75
218,85	339,85
219,07	348,27
219,29	332,91
219,51	330,52
219,73	306,51
219,94	352,71
220,16	353,84
220,38	297,98
220,60	326,08
220,81	324,94
221,03	309,93
221,25	324,72
221,47	342,24
221,68	320,62
221,90	299,00
222,12	362,60
222,34	321,76
222,55	365,33
222,77	321,87
222,99	351,91
223,21	338,48
223,42	329,38
223,64	363,63
223,86	335,07
224,08	372,73
224,29	325,40
224,51	330,97
224,73	328,24
224,94	314,36
225,16	323,92
225,38	329,61
225,60	346,79
225,81	334,84
226,03	328,24
226,25	328,36
226,47	363,74
226,68	363,40
226,90	337,12
227,12	362,83
227,33	354,75
227,55	365,90
227,77	355,66
227,99	377,17
228,20	396,85
228,42	403,45
228,64	400,26
228,86	447,94
229,07	485,37
229,29	525,87
229,51	590,95
229,72	591,86
229,94	516,09
230,16	500,96
230,38	423,82
230,59	385,25
230,81	389,11
231,03	342,24
231,24	340,99
231,46	349,06
231,68	355,89
231,89	351,68
232,11	329,72
232,33	345,20
232,55	297,64
232,76	338,48
232,98	339,05
233,20	349,75
233,41	360,67
233,63	335,98
233,85	341,10
234,06	330,52
234,28	342,12
234,50	316,98
234,71	328,47
234,93	330,06
235,15	339,62
235,37	345,88
235,58	330,06
235,80	329,38
236,02	332,00
236,23	343,83
236,45	361,13
236,67	344,63
236,88	356,57
237,10	351,57
237,32	350,43
237,53	383,99
237,75	332,68
237,97	358,85
238,18	353,62
238,40	358,51
238,62	362,15
238,83	366,47
239,05	379,67
239,27	363,74
239,48	344,06
239,70	356,35
239,92	328,70
240,13	364,08
240,35	327,33
240,57	344,86
240,78	342,12
241,00	334,27
241,22	339,85
241,43	330,75
241,65	341,44
241,87	336,55
242,08	358,85
242,30	356,12
242,52	328,13
242,73	361,81
242,95	311,52
243,16	333,71
243,38	343,03
243,60	326,31
243,81	357,71
244,03	342,24
244,25	337,91
244,46	348,38
244,68	327,67
244,90	365,56
245,11	347,02
245,33	357,94
245,55	364,20
245,76	361,35
245,98	361,13
246,19	345,20
246,41	376,94
246,63	327,45
246,84	332,11
247,06	337,91
247,28	368,07
247,49	329,27
247,71	346,56
247,92	333,59
248,14	346,90
248,36	350,54
248,57	370,45
248,79	362,04
249,01	340,19
249,22	372,96
249,44	384,11
249,65	413,23
249,87	373,19
250,09	399,70
250,30	371,48
250,52	374,10
250,73	367,04
250,95	374,89
251,17	367,38
251,38	369,66
251,60	366,59
251,81	394,69
252,03	344,86
252,25	352,59
252,46	359,30
252,68	368,07
252,89	341,90
253,11	356,12
253,33	348,84
253,54	361,69
253,76	354,64
253,97	350,66
254,19	340,76
254,41	378,08
254,62	358,17
254,84	332,11
255,05	348,95
255,27	359,99
255,49	345,20
255,70	360,21
255,92	322,56
256,13	356,01
256,35	344,63
256,56	351,00
256,78	383,88
257,00	370,45
257,21	415,74
257,43	414,14
257,64	432,12
257,86	421,77
258,08	446,23
258,29	438,72
258,51	426,32
258,72	421,31
258,94	380,58
259,15	400,72
259,37	390,71
259,59	351,34
259,80	360,56
260,02	403,22
260,23	409,71
260,45	437,24
260,66	466,25
260,88	480,59
261,09	470,69
261,31	468,64
261,53	470,92
261,74	488,10
261,96	507,55
262,17	499,02
262,39	505,05
262,60	530,42
262,82	543,39
263,03	571,50
263,25	578,21
263,46	552,61
263,68	575,25
263,90	607,22
264,11	575,93
264,33	609,16
264,54	578,44
264,76	622,58
264,97	614,39
265,19	586,06
265,40	592,89
265,62	595,85
265,83	622,92
266,05	616,89
266,26	590,61
266,48	649,77
266,70	631,46
266,91	636,12
267,13	632,59
267,34	625,65
267,56	622,01
267,77	588,11
267,99	615,41
268,20	629,41
268,42	630,43
268,63	628,84
268,85	632,37
269,06	627,02
269,28	617,35
269,49	630,32
269,71	653,42
269,92	624,06
270,14	654,44
270,35	668,32
270,57	654,78
270,78	650,80
271,00	692,90
271,21	670,82
271,43	707,69
271,64	712,81
271,86	720,20
272,07	736,70
272,29	772,08
272,50	751,83
272,72	800,76
272,93	780,39
273,15	791,43
273,36	796,77
273,58	792,45
273,79	806,10
274,01	827,72
274,22	832,50
274,44	861,97
274,65	850,25
274,87	843,99
275,08	886,09
275,30	904,75
275,51	932,62
275,73	894,05
275,94	886,09
276,16	908,50
276,37	906,23
276,59	903,27
276,80	926,93
277,02	928,53
277,23	930,35
277,45	938,65
277,66	963,11
277,88	946,84
278,09	961,52
278,30	954,58
278,52	906,34
278,73	982,91
278,95	981,66
279,16	956,06
279,38	974,49
279,59	983,48
279,81	992,47
280,02	947,19
280,24	972,90
280,45	933,99
280,67	927,39
280,88	905,77
281,09	864,47
281,31	877,90
281,52	881,76
281,74	850,25
281,95	878,46
282,17	872,43
282,38	853,43
282,60	872,32
282,81	867,88
283,02	909,53
283,24	983,59
283,45	1122,63
283,67	1271,33
283,88	1324,13
284,10	1287,38
284,31	1165,07
284,53	1025,58
284,74	910,21
284,95	830,00
285,17	761,62
285,38	782,10
285,60	742,84
285,81	786,99
286,03	787,44
286,24	785,28
286,45	775,73
286,67	769,69
286,88	735,56
287,10	738,86
287,31	766,85
287,53	753,42
287,74	758,66
287,95	767,76
288,17	760,37
288,38	763,44
288,60	768,78
288,81	759,34
289,02	718,95
289,24	756,50
289,45	744,10
289,67	748,42
289,88	750,13
290,10	743,75
290,31	754,79
290,52	730,67
290,74	733,06
290,95	752,29
291,17	747,28
291,38	739,89
291,59	733,63
291,81	726,12
292,02	704,84
292,24	705,87
292,45	686,75
292,66	713,38
292,88	681,52
293,09	739,66
293,31	688,69
293,52	680,84
293,73	685,73
293,95	698,58
294,16	646,48
294,37	647,61
294,59	668,32
294,80	673,33
295,02	647,04
295,23	636,35
295,44	651,14
295,66	645,00
295,87	650,91
296,09	639,31
296,30	612,00
296,51	613,94
296,73	601,88
296,94	561,14
297,15	547,26
297,37	517,91
297,58	505,39
297,79	448,05
298,01	471,03
298,22	438,83
298,44	417,22
298,65	415,74
298,86	432,92
299,08	395,83
299,29	384,90
299,50	380,92
299,72	429,28
299,93	388,09
300,14	398,56
300,36	414,71
300,57	380,01
300,79	382,74
301,00	374,66
301,21	406,64
301,43	389,11
301,64	423,93
301,85	422,79
302,07	418,92
302,28	405,27
302,49	411,19
302,71	425,98
302,92	433,94
303,13	465,12
303,35	617,69
303,56	800,07
303,77	951,85
303,99	1047,76
304,20	1077,46
304,41	979,84
304,63	853,66
304,84	644,20
305,05	529,06
305,27	465,57
305,48	442,82
305,69	438,27
305,91	439,40
306,12	427,68
306,33	434,97
306,55	434,62
306,76	434,62
306,97	445,21
307,19	448,28
307,40	415,74
307,61	448,73
307,82	452,37
308,04	496,40
308,25	505,96
308,46	507,44
308,68	519,16
308,89	505,28
309,10	501,75
309,32	496,18
309,53	429,96
309,74	435,88
309,96	457,95
310,17	451,80
310,38	444,52
310,59	426,09
310,81	427,23
311,02	466,94
311,23	461,13
311,45	432,35
311,66	486,28
311,87	444,86
312,09	444,64
312,30	402,77
312,51	457,04
312,72	424,95
312,94	416,31
313,15	455,90
313,36	405,95
313,58	437,47
313,79	405,16
314,00	433,49
314,21	402,54
314,43	432,80
314,64	439,06
314,85	449,53
315,06	441,91
315,28	452,60
315,49	444,41
315,70	444,98
315,92	444,98
316,13	449,07
316,34	496,52
316,55	471,94
316,77	471,60
316,98	474,79
317,19	478,09
317,40	480,59
317,62	491,40
317,83	514,72
318,04	485,48
318,25	481,27
318,47	481,73
318,68	495,27
318,89	499,59
319,11	495,15
319,32	481,50
319,53	499,82
319,74	513,59
319,96	491,51
320,17	471,94
320,38	494,24
320,59	504,14
320,81	508,12
321,02	508,58
321,23	540,09
321,44	551,59
321,65	505,73
321,87	525,19
322,08	546,58
322,29	548,40
322,50	550,33
322,72	563,31
322,93	564,10
323,14	599,83
323,35	621,44
323,57	655,46
323,78	649,89
323,99	658,08
324,20	646,93
324,41	664,91
324,63	639,42
324,84	664,68
325,05	663,88
325,26	679,81
325,48	677,88
325,69	693,69
325,90	696,08
326,11	727,94
326,32	731,92
326,54	740,91
326,75	726,57
326,96	756,16
327,17	777,89
327,39	804,17
327,60	855,03
327,81	955,26
328,02	1145,38
328,23	1484,89
328,45	2234,56
328,66	3991,83
328,87	9137,01
329,08	21160,98
329,29	42218,88
329,51	64023,26
329,72	64035,32
329,93	63946,46
330,14	64038,85
330,35	63983,89
330,56	64048,17
330,78	63994,59
330,99	43671,23
331,20	14234,52
331,41	6520,39
331,62	3023,37
331,84	1751,58
332,05	1201,82
332,26	1001,46
332,47	939,22
332,68	880,97
332,90	833,18
333,11	797,11
333,32	764,80
333,53	769,13
333,74	743,98
333,95	733,51
334,17	712,24
334,38	693,46
334,59	694,94
334,80	675,72
335,01	683,23
335,22	675,37
335,44	676,74
335,65	652,62
335,86	667,98
336,07	684,25
336,28	646,36
336,49	671,51
336,71	697,11
336,92	677,19
337,13	654,44
337,34	646,59
337,55	636,12
337,76	628,39
337,97	613,48
338,19	602,56
338,40	639,76
338,61	584,70
338,82	616,89
339,03	610,07
339,24	614,62
339,45	613,25
339,67	617,24
339,88	603,24
340,09	574,91
340,30	598,35
340,51	618,37
340,72	616,89
340,93	621,79
341,15	633,51
341,36	633,28
341,57	642,83
341,78	639,88
341,99	666,96
342,20	665,48
342,41	656,26
342,62	648,41
342,84	623,49
343,05	627,82
343,26	598,92
343,47	614,39
343,68	585,15
343,89	601,19
344,10	601,65
344,31	621,56
344,53	586,40
344,74	609,61
344,95	619,97
345,16	605,63
345,37	600,62
345,58	638,28
345,79	626,79
346,00	612,34
346,21	606,31
346,42	619,62
346,64	649,55
346,85	600,51
347,06	615,30
347,27	616,89
347,48	600,17
347,69	585,38
347,90	598,69
348,11	600,74
348,32	620,65
348,53	603,01
348,75	627,82
348,96	645,57
349,17	638,28
349,38	627,13
349,59	631,80
349,80	657,40
350,01	619,40
350,22	636,24
350,43	603,13
350,64	636,46
350,85	653,19
351,06	629,52
351,28	622,58
351,49	607,45
351,70	650,91
351,91	622,92
352,12	626,56
352,33	648,41
352,54	608,47
352,75	617,46
352,96	622,35
353,17	669,34
353,38	645,11
353,59	653,07
353,80	667,30
354,01	644,77
354,22	662,29
354,44	700,86
354,65	740,80
354,86	770,49
355,07	767,87
355,28	765,37
355,49	758,89
355,70	691,99
355,91	751,83
356,12	765,03
356,33	728,62
356,54	733,06
356,75	701,54
356,96	713,38
357,17	735,90
357,38	806,33
357,59	880,51
357,80	1041,96
358,01	1220,82
358,22	1344,38
358,43	1418,10
358,64	1407,98
358,85	1293,75
359,07	1135,71
359,28	977,11
359,49	925,23
359,70	861,17
359,91	836,71
360,12	794,84
360,33	768,56
360,54	756,84
360,75	721,23
360,96	719,97
361,17	706,21
361,38	710,30
361,59	701,54
361,80	704,84
362,01	689,37
362,22	714,17
362,43	726,92
362,64	739,09
362,85	750,58
363,06	733,63
363,27	738,18
363,48	730,33
363,69	731,92
363,90	722,93
364,11	720,20
364,32	720,54
364,53	746,14
364,74	756,27
364,95	735,33
365,16	747,85
365,37	737,61
365,58	728,28
365,79	725,21
366,00	720,89
366,21	749,78
366,42	710,76
366,63	703,93
366,84	747,39
367,05	707,91
367,26	725,32
367,47	715,42
367,68	711,67
367,89	724,18
368,10	694,83
368,31	725,66
368,52	712,58
368,73	738,07
368,94	750,24
369,15	758,20
369,36	737,61
369,57	725,09
369,78	741,48
369,99	732,72
370,20	734,99
370,40	719,06
370,61	732,26
370,82	725,32
371,03	731,24
371,24	741,14
371,45	752,74
371,66	750,01
371,87	788,01
372,08	744,78
372,29	729,19
372,50	745,80
372,71	723,73
372,92	742,84
373,13	731,69
373,34	729,99
373,55	753,20
373,76	742,16
373,97	780,84
374,18	797,23
374,39	771,52
374,60	758,66
374,81	778,11
375,01	780,39
375,22	764,58
375,43	832,84
375,64	826,36
375,85	836,25
376,06	795,86
376,27	837,96
376,48	823,74
376,69	805,31
376,90	804,28
377,11	784,83
377,32	784,49
377,53	774,02
377,74	750,92
377,94	779,71
378,15	802,92
378,36	760,48
378,57	783,01
378,78	778,91
378,99	772,43
379,20	836,94
379,41	831,48
379,62	816,91
379,83	844,79
380,04	805,99
380,25	844,33
380,45	781,19
380,66	806,22
380,87	790,74
381,08	748,19
381,29	752,63
381,50	755,13
381,71	733,97
381,92	739,66
382,13	765,37
382,34	767,65
382,55	764,57
382,75	804,28
382,96	802,46
383,17	761,39
383,38	778,00
383,59	756,84
383,80	737,27
384,01	718,72
384,22	755,70
384,43	749,67
384,63	764,58
384,84	760,59
385,05	721,11
385,26	723,84
385,47	750,24
385,68	760,37
385,89	777,20
386,10	833,30
386,30	813,61
386,51	859,58
386,72	867,66
386,93	846,04
387,14	824,88
387,35	813,27
387,56	812,36
387,77	786,65
387,97	818,16
388,18	799,50
388,39	814,07
388,60	776,75
388,81	796,89
389,02	807,35
389,23	807,70
389,43	792,79
389,64	787,90
389,85	765,83
390,06	780,50
390,27	787,79
390,48	799,96
390,69	789,83
390,89	794,50
391,10	822,83
391,31	889,05
391,52	976,31
391,73	1027,17
391,94	1146,18
392,14	1170,07
392,35	1145,61
392,56	1089,29
392,77	1009,88
392,98	925,11
393,19	856,16
393,39	880,06
393,60	977,22
393,81	1141,17
394,02	1249,83
394,23	1367,59
394,44	1375,67
394,64	1341,99
394,85	1225,94
395,06	1053,22
395,27	969,83
395,48	904,52
395,69	847,06
395,89	828,29
396,10	821,01
396,31	827,61
396,52	798,37
396,73	832,27
396,93	790,40
397,14	817,82
397,35	800,19
397,56	813,50
397,77	776,64
397,97	807,92
398,18	794,27
398,39	791,54
398,60	799,05
398,81	760,25
399,01	788,47
399,22	810,65
399,43	747,62
399,64	806,79
399,85	777,09
400,05	785,85
400,26	793,25
400,47	782,89
400,68	770,72
400,89	783,92
401,09	773,79
401,30	786,65
401,51	794,38
401,72	803,60
401,93	832,84
402,13	828,86
402,34	793,93
402,55	812,02
402,76	837,73
402,96	902,47
403,17	1103,86
403,38	1390,57
403,59	1646,91
403,80	1921,56
404,00	1941,82
404,21	1815,41
404,42	1661,93
404,63	1427,78
404,83	1235,95
405,04	1048,90
405,25	966,53
405,46	908,16
405,66	835,34
405,87	859,35
406,08	842,40
406,29	857,53
406,49	841,94
406,70	830,11
406,91	820,44
407,12	817,03
407,32	833,07
407,53	830,00
407,74	897,24
407,95	986,44
408,15	1129,57
408,36	1294,20
408,57	1426,30
408,78	1569,88
408,98	1567,04
409,19	1508,10
409,40	1430,05
409,61	1317,07
409,81	1167,57
410,02	1070,29
410,23	952,87
410,44	933,19
410,64	887,34
410,85	887,57
411,06	878,69
411,26	851,39
411,47	872,43
411,68	903,61
411,89	836,94
412,09	866,97
412,30	900,54
412,51	879,03
412,72	898,38
412,92	926,59
413,13	914,87
413,34	895,53
413,54	902,93
413,75	907,82
413,96	921,36
414,17	1018,98
414,37	1440,29
414,58	2244,23
414,79	3354,80
414,99	4326,79
415,20	5161,91
415,41	5381,15
415,61	4994,77
415,82	4178,54
416,03	3222,02
416,24	2539,71
416,44	1939,77
416,65	1602,99
416,86	1465,66
417,06	1403,77
417,27	1466,91
417,48	1574,43
417,68	1825,42
417,89	2127,38
418,10	2319,21
418,30	2709,35
418,51	3230,78
418,72	4083,88
418,92	5219,70
419,13	5852,41
419,34	6530,63
419,55	6372,03
419,75	5734,88
419,96	4561,40
420,17	3578,26
420,37	2622,42
420,58	1909,39
420,79	1514,59
420,99	1267,01
421,20	1127,29
421,41	1006,12
421,61	972,67
421,82	928,87
422,03	911,46
422,23	912,71
422,44	945,59
422,65	937,63
422,85	951,05
423,06	950,37
423,26	956,06
423,47	968,35
423,68	1003,28
423,88	1037,41
424,09	1098,85
424,30	1195,67
424,50	1372,37
424,71	1625,29
424,92	1967,64
425,12	2206,69
425,33	2570,88
425,54	2832,00
425,74	2970,35
425,95	3112,00
426,15	3348,20
426,36	3239,09
426,57	3245,69
426,77	2968,87
426,98	2605,70
427,19	2144,79
427,39	1804,37
427,60	1469,53
427,81	1293,97
428,01	1136,96
428,22	1151,64
428,42	1142,65
428,63	1296,82
428,84	1500,71
429,04	1753,40
429,25	1965,37
429,45	2017,59
429,66	2005,76
429,87	1836,46
430,07	1611,07
430,28	1388,52
430,49	1260,18
430,69	1159,72
430,90	1071,20
431,10	1058,34
431,31	1073,93
431,52	1085,08
431,72	1101,81
431,93	1234,36
432,13	1535,41
432,34	1871,16
432,55	2066,29
432,75	2352,43
432,96	2387,93
433,16	2242,18
433,37	2118,74
433,58	1975,27
433,78	1792,20
433,99	1587,97
434,19	1539,16
434,40	1427,55
434,60	1292,38
434,81	1180,09
435,02	1088,50
435,22	1034,34
435,43	1003,39
435,63	979,61
435,84	1004,07
436,05	1019,21
436,25	977,11
436,46	994,40
436,66	970,51
436,87	969,14
437,07	999,64
437,28	1040,71
437,48	1056,98
437,69	1069,49
437,90	1105,11
438,10	1163,59
438,31	1201,48
438,51	1248,35
438,72	1231,85
438,92	1180,65
439,13	1163,47
439,34	1066,31
439,54	1064,26
439,75	973,24
439,95	1000,32
440,16	987,69
440,36	973,47
440,57	949,23
440,77	1010,56
440,98	1008,85
441,18	980,29
441,39	1039,00
441,60	1044,81
441,80	1039,12
442,01	1019,09
442,21	1044,69
442,42	1025,58
442,62	1035,13
442,83	990,08
443,03	994,29
443,24	979,61
443,44	981,09
443,65	974,04
443,85	948,78
444,06	941,84
444,26	938,77
444,47	1002,48
444,67	977,11
444,88	976,65
445,09	1011,70
445,29	973,70
445,50	980,29
445,70	947,07
445,91	956,17
446,11	964,02
446,32	973,13
446,52	987,92
446,73	961,18
446,93	966,87
447,14	982,91
447,34	998,61
447,55	1002,59
447,75	1007,94
447,96	1045,60
448,16	1130,02
448,37	1304,90
448,57	1464,18
448,78	1681,72
448,98	1782,42
449,19	1827,13
449,39	1762,73
449,60	1696,51
449,80	1676,38
450,01	1720,07
450,21	1684,57
450,42	1685,93
450,62	1605,95
450,83	1524,03
451,03	1488,42
451,23	1453,60
451,44	1401,61
451,64	1394,10
451,85	1306,72
452,05	1247,21
452,26	1172,12
452,46	1154,49
452,67	1147,77
452,87	1150,73
453,08	1139,24
453,28	1175,19
453,49	1223,32
453,69	1243,91
453,90	1298,98
454,10	1399,10
454,31	1475,22
454,51	1540,19
454,71	1612,78
454,92	1637,12
455,12	1573,64
455,33	1496,04
455,53	1382,04
455,74	1311,16
455,94	1262,69
456,15	1205,00
456,35	1164,84
456,55	1118,19
456,76	1117,17
456,96	1123,88
457,17	1100,44
457,37	1149,14
457,58	1129,57
457,78	1153,69
457,99	1215,01
458,19	1255,86
458,39	1364,52
458,60	1512,08
458,80	1618,58
459,01	1688,89
459,21	1679,11
459,42	1651,57
459,62	1523,80
459,82	1460,43
460,03	1353,59
460,23	1260,07
460,44	1188,28
460,64	1129,68
460,85	1166,20
461,05	1113,64
461,25	1111,48
461,46	1162,56
461,66	1153,58
461,87	1214,67
462,07	1233,33
462,27	1248,81
462,48	1238,91
462,68	1269,06
462,89	1226,05
463,09	1240,73
463,29	1220,02
463,50	1170,53
463,70	1152,67
463,91	1142,54
464,11	1128,09
464,31	1138,44
464,52	1181,45
464,72	1226,28
464,93	1346,54
465,13	1686,16
465,33	2306,13
465,54	3205,30
465,74	4296,64
465,95	5240,87
466,15	5684,71
466,35	5756,39
466,56	5197,52
466,76	4374,01
466,96	3503,39
467,17	2802,53
467,37	2212,60
467,58	1832,59
467,78	1593,32
467,98	1398,65
468,19	1317,07
468,39	1303,87
468,59	1284,76
468,80	1295,45
469,00	1348,13
469,21	1419,92
469,41	1456,67
469,61	1556,23
469,82	1566,24
470,02	1534,04
470,22	1509,13
470,43	1484,32
470,63	1476,81
470,83	1440,97
471,04	1425,27
471,24	1406,04
471,45	1404,34
471,65	1394,44
471,85	1329,47
472,06	1348,13
472,26	1297,16
472,46	1293,18
472,67	1303,53
472,87	1329,93
473,07	1296,48
473,28	1359,62
473,48	1491,15
473,68	1709,94
473,89	1989,03
474,09	2348,11
474,29	2610,59
474,50	2757,36
474,70	2739,27
474,90	2550,52
475,11	2330,36
475,31	2122,38
475,51	1877,53
475,72	1732,01
475,92	1628,48
476,12	1544,51
476,33	1514,25
476,53	1465,32
476,73	1451,55
476,93	1477,50
477,14	1489,67
477,34	1473,06
477,54	1479,09
477,75	1486,94
477,95	1458,50
478,15	1433,69
478,36	1452,69
478,56	1453,15
478,76	1509,69
478,97	1512,77
479,17	1496,38
479,37	1462,82
479,57	1497,86
479,78	1499,23
479,98	1491,49
480,18	1552,25
480,39	1499,11
480,59	1506,96
480,79	1483,75
480,99	1475,33
481,20	1478,97
481,40	1445,07
481,60	1480,80
481,81	1492,06
482,01	1523,35
482,21	1499,00
482,41	1497,75
482,62	1553,84
482,82	1570,34
483,02	1617,10
483,23	1602,99
483,43	1629,39
483,63	1625,29
483,83	1624,49
484,04	1641,45
484,24	1640,88
484,44	1655,56
484,64	1664,88
484,85	1656,58
485,05	1648,50
485,25	1651,57
485,45	1622,79
485,66	1647,93
485,86	1637,12
486,06	1618,69
486,26	1664,77
486,47	1642,47
486,67	1727,23
486,87	1795,04
487,07	1931,92
487,28	2009,17
487,48	2089,95
487,68	2193,03
487,88	2199,29
488,09	2134,21
488,29	2059,46
488,49	1969,12
488,69	1921,34
488,90	1874,92
489,10	1848,41
489,30	1793,91
489,50	1847,61
489,71	1809,84
489,91	1849,32
490,11	1839,76
490,31	1866,61
490,52	1844,54
490,72	1802,55
490,92	1839,42
491,12	1827,13
491,32	1843,06
491,53	1854,89
491,73	1866,95
491,93	1949,44
492,13	2105,43
492,33	2222,96
492,54	2332,30
492,74	2526,17
492,94	2518,55
493,14	2445,39
493,35	2354,71
493,55	2199,75
493,75	2099,74
493,95	2016,45
494,15	1955,36
494,36	1922,82
494,56	1856,14
494,76	1906,77
494,96	1904,16
495,16	1922,59
495,37	1934,08
495,57	1945,46
495,77	1981,98
495,97	2047,17
496,17	2545,85
496,37	4556,73
496,58	8889,66
496,78	16389,55
496,98	27623,91
497,18	39272,19
497,38	48260,50
497,59	53004,73
497,79	52011,01
497,99	45785,87
498,19	36791,08
498,39	27481,47
498,59	20051,89
498,80	13797,73
499,00	9259,55
499,20	6418,22
499,40	4680,86
499,60	3676,56
499,80	2981,16
500,01	2558,94
500,21	2252,08
500,41	2120,79
500,61	2059,80
500,81	1989,37
501,01	1979,02
501,22	1943,41
501,42	1964,34
501,62	1960,93
501,82	1974,81
502,02	1956,61
502,22	2025,90
502,42	2057,53
502,63	2083,47
502,83	2059,46
503,03	2053,77
503,23	2049,56
503,43	2055,25
503,63	2092,68
503,83	2132,16
504,04	2125,56
504,24	2143,20
504,44	2155,83
504,64	2127,84
504,84	2135,80
505,04	2153,44
505,24	2165,27
505,44	2158,22
505,65	2212,38
505,85	2177,10
506,05	2131,14
506,25	2110,09
506,45	2082,56
506,65	2071,29
506,85	2119,76
507,05	2128,18
507,26	2164,48
507,46	2215,22
507,66	2217,15
507,86	2185,30
508,06	2160,15
508,26	2092,57
508,46	2111,11
508,66	2121,81
508,86	2161,06
509,06	2294,52
509,27	2361,99
509,47	2410,46
509,67	2424,00
509,87	2457,45
510,07	2447,10
510,27	2397,94
510,47	2339,46
510,67	2273,81
510,87	2239,80
511,07	2211,01
511,28	2217,61
511,48	2213,51
511,68	2240,14
511,88	2272,22
512,08	2285,65
512,28	2269,26
512,48	2271,99
512,68	2312,04
512,88	2330,59
513,08	2395,33
513,28	2501,71
513,48	3214,86
513,68	4452,51
513,89	6594,23
514,09	9372,76
514,29	12394,42
514,49	14320,54
514,69	15193,20
514,89	14686,55
515,09	12988,45
515,29	10630,78
515,49	8431,49
515,69	6633,48
515,89	5218,45
516,09	4187,07
516,29	3479,50
516,49	3111,43
516,69	2891,73
516,89	2703,43
517,09	2567,13
517,29	2561,90
517,50	2565,08
517,70	2634,14
517,90	2699,45
518,10	2747,81
518,30	2816,30
518,50	2750,19
518,70	2723,34
518,90	2718,00
519,10	2642,90
519,30	2616,85
519,50	2572,59
519,70	2577,25
519,90	2610,25
520,10	2631,53
520,30	2643,02
520,50	2635,51
520,70	2655,08
520,90	2587,27
521,10	2592,50
521,30	2633,57
521,50	2665,89
521,70	2699,45
521,90	2660,20
522,10	2669,19
522,30	2570,20
522,50	2524,24
522,70	2494,88
522,90	2458,02
523,10	2478,27
523,30	2469,05
523,50	2482,14
523,70	2465,87
523,90	2540,96
524,10	2545,74
524,30	2591,25
524,50	2615,03
524,70	2649,84
524,90	2638,81
525,10	2690,01
525,30	2619,01
525,50	2615,48
525,70	2640,06
525,90	2657,13
526,10	2670,67
526,30	2718,11
526,50	2727,78
526,70	2739,95
526,90	2752,93
527,10	2727,55
527,30	2786,83
527,50	2734,38
527,70	2736,20
527,90	2728,35
528,10	2712,08
528,30	2711,51
528,50	2707,19
528,70	2649,05
528,90	2633,80
529,10	2637,10
529,30	2657,92
529,50	2653,26
529,70	2668,16
529,90	2628,11
530,10	2688,07
530,29	2700,82
530,49	2735,74
530,69	2743,48
530,89	2765,44
531,09	2775,34
531,29	2788,31
531,49	2802,65
531,69	2813,11
531,89	2816,30
532,09	2824,04
532,29	2812,89
532,49	2826,08
532,69	2785,24
532,89	2802,30
533,09	2789,67
533,29	2820,62
533,49	2831,43
533,68	2848,38
533,88	2884,00
534,08	2861,81
534,28	2862,72
534,48	2920,63
534,68	2934,97
534,88	2898,56
535,08	2968,76
535,28	2991,85
535,48	2988,67
535,68	3006,08
535,88	3064,44
536,08	3083,44
536,27	3065,01
536,47	3046,01
536,67	3089,02
536,87	3084,70
537,07	3006,30
537,27	3088,22
537,47	3046,81
537,67	3042,49
537,87	3097,44
538,07	3108,36
538,27	3049,54
538,46	3081,74
538,66	3138,17
538,86	3065,58
539,06	3123,72
539,26	3056,82
539,46	3049,77
539,66	3121,90
539,86	3074,57
540,06	3046,81
540,25	3090,27
540,45	3112,46
540,65	3133,96
540,85	3201,89
541,05	3247,62
541,25	3291,09
541,45	3297,23
541,65	3247,17
541,85	3219,52
542,04	3175,83
542,24	3164,57
542,44	3162,52
542,64	3143,18
542,84	3151,03
543,04	3204,96
543,24	3243,30
543,43	3272,31
543,63	3318,96
543,83	3382,79
544,03	3381,77
544,23	3414,31
544,43	3450,49
544,63	3480,64
544,82	3553,11
545,02	3541,85
545,22	3622,06
545,42	3564,03
545,62	3603,17
545,82	3521,37
546,02	3470,40
546,21	3390,41
546,41	3424,77
546,61	3370,73
546,81	3407,48
547,01	3357,08
547,21	3386,66
547,40	3430,35
547,60	3403,38
547,80	3464,03
548,00	3549,58
548,20	3626,73
548,40	3774,41
548,59	3922,20
548,79	4123,70
548,99	4273,66
549,19	4298,35
549,39	4238,27
549,59	4335,55
549,78	4298,80
549,98	4313,59
550,18	4353,53
550,38	4429,76
550,58	4387,43
550,77	4409,28
550,97	4392,21
551,17	4377,53
551,37	4398,47
551,57	4422,13
551,76	4420,09
551,96	4450,58
552,16	4540,46
552,36	4622,83
552,56	4665,73
552,75	4809,88
552,95	4857,67
553,15	4861,54
553,35	4842,08
553,55	4931,39
553,74	5038,80
553,94	4990,22
554,14	5026,40
554,34	5057,57
554,54	5177,38
554,73	5386,16
554,93	5520,75
555,13	5643,75
555,33	5706,32
555,53	5705,64
555,72	5627,93
555,92	5562,85
556,12	5638,51
556,32	5630,21
556,51	5675,49
556,71	5771,06
556,91	5740,91
557,11	5844,56
557,30	5868,91
557,50	5875,39
557,70	5895,87
557,90	6036,96
558,10	6016,82
558,29	6015,91
558,49	6215,93
558,69	6235,72
558,89	6288,40
559,08	6417,77
559,28	6587,18
559,48	6787,20
559,68	6974,81
559,87	7170,74
560,07	7256,41
560,27	7311,02
560,47	7377,58
560,66	7401,59
560,86	7413,87
561,06	7347,09
561,25	7371,89
561,45	7417,29
561,65	7526,40
561,85	7578,85
562,04	7626,86
562,24	7697,40
562,44	7880,93
562,64	8010,06
562,83	8376,31
563,03	8491,33
563,23	8771,45
563,42	9132,58
563,62	9599,51
563,82	9995,68
564,02	10501,64
564,21	10849,80
564,41	11198,07
564,61	11525,06
564,80	11901,88
565,00	12356,19
565,20	13099,15
565,40	13854,05
565,59	14858,92
565,79	15965,17
565,99	17128,41
566,18	18281,88
566,38	19651,74
566,58	23098,13
566,78	38110,20
566,97	63948,51
567,17	63928,37
567,37	64058,87
567,56	63956,13
567,76	63936,90
567,96	64081,51
568,15	64027,13
568,35	63986,05
568,55	63950,33
568,74	64019,50
568,94	64012,56
569,14	64032,13
569,33	64043,05
569,53	64020,53
569,73	64029,74
569,92	63897,19
570,12	63975,81
570,32	64024,28
570,52	64056,59
570,71	64036,34
570,91	63879,67
571,11	64023,03
571,30	63986,39
571,50	64008,92
571,70	63905,95
571,89	63923,70
572,09	63940,66
572,28	64075,48
572,48	64111,66
572,68	64088,57
572,87	64019,96
573,07	63985,94
573,27	63922,79
573,46	63922,68
573,66	64055,12
573,86	64022,69
574,05	63993,79
574,25	64076,85
574,45	64058,98
574,64	63964,44
574,84	63815,50
575,04	63987,99
575,23	63932,81
575,43	63989,69
575,62	63978,43
575,82	63947,03
576,02	64098,01
576,21	64023,94
576,41	64065,24
576,61	63978,43
576,80	64005,17
577,00	64079,69
577,19	64101,31
577,39	64009,15
577,59	63977,29
577,78	35024,36
577,98	47100,32
578,18	30425,53
578,37	31164,51
578,57	31862,87
578,76	32742,81
578,96	33183,01
579,16	33685,56
579,35	34815,24
579,55	35199,69
579,74	36303,20
579,94	37434,37
580,14	38773,17
580,33	40346,01
580,53	41619,16
580,72	42395,11
580,92	43354,93
581,12	44325,55
581,31	45327,58
581,51	46477,17
581,70	47560,21
581,90	49449,34
582,10	50528,17
582,29	52910,98
582,49	54640,94
582,68	57148,68
582,88	59592,82
583,07	62203,07
583,27	63950,55
583,47	63843,72
583,66	64001,19
583,86	63998,34
584,05	63989,92
584,25	64031,90
584,44	63917,56
584,64	63888,09
584,84	64109,61
585,03	63989,12
585,23	64069,34
585,42	64055,34
585,62	64047,15
585,81	64058,64
586,01	63967,39
586,20	63982,87
586,40	63998,45
586,60	63884,22
586,79	64003,80
586,99	63937,02
587,18	63970,35
587,38	64143,52
587,57	64108,13
587,77	64045,67
587,96	63912,10
588,16	63999,14
588,35	63993,33
588,55	63895,15
588,75	63885,70
588,94	63958,86
589,14	64033,73
589,33	64050,68
589,53	63940,66
589,72	64053,41
589,92	64058,98
590,11	63996,98
590,31	63943,16
590,50	63923,36
590,70	63903,57
590,89	63926,43
591,09	63957,95
591,28	63878,53
591,48	64044,19
591,67	63899,47
591,87	64072,18
592,06	63992,42
592,26	64027,47
592,45	63974,79
592,65	63927,69
592,84	64070,02
593,04	64060,12
593,23	63994,93
593,43	64084,01
593,62	63965,57
593,82	63956,36
594,01	64048,29
594,21	63958,41
594,40	63974,11
594,60	64106,09
594,79	64004,48
594,99	63939,29
595,18	64055,00
595,38	63921,88
595,57	63993,22
595,77	63941,79
595,96	63909,82
596,16	63965,23
596,35	63984,92
596,55	63970,01
596,74	63942,02
596,94	64013,93
597,13	63946,69
597,33	64039,64
597,52	63990,26
597,72	64043,85
597,91	63875,35
598,11	64064,90
598,30	64012,11
598,50	63998,23
598,69	64038,05
598,88	64019,28
599,08	63997,20
599,27	63996,98
599,47	64069,34
599,66	63970,01
599,86	64018,93
600,05	64012,45
600,25	63968,99
600,44	63959,43
600,64	63904,70
600,83	63987,65
601,02	63894,92
601,22	63960,11
601,41	63917,90
601,61	63988,67
601,80	63961,48
602,00	63977,18
602,19	64012,34
602,38	64023,71
602,58	64022,58
602,77	64015,86
602,97	64092,77
603,16	63984,69
603,36	63964,21
603,55	63940,32
603,74	64033,84
603,94	64063,76
604,13	63912,67
604,33	63969,90
604,52	64060,23
604,72	64012,56
604,91	63988,67
605,10	64055,12
605,30	64030,43
605,49	63868,29
605,69	63916,88
605,88	63971,15
606,07	63911,76
606,27	63863,40
606,46	63938,04
606,66	63972,85
606,85	64071,27
607,04	64022,80
607,24	64012,90
607,43	63900,95
607,63	64020,41
607,82	63978,77
608,01	64002,10
608,21	64042,60
608,40	63934,74
608,60	63997,77
608,79	63983,89
608,98	63979,68
609,18	63924,61
609,37	63844,86
609,57	63956,58
609,76	63864,54
609,95	64007,56
610,15	63922,00
610,34	63938,15
610,53	64047,49
610,73	63981,84
610,92	63996,18
611,11	64008,92
611,31	63932,92
611,50	64018,02
611,70	63889,80
611,89	63975,13
612,08	63934,51
612,28	63994,36
612,47	63896,28
612,66	64021,21
612,86	63808,90
613,05	63915,97
613,24	63866,82
613,44	63922,34
613,63	63973,77
613,82	63901,86
614,02	63939,86
614,21	63973,77
614,41	64015,07
614,60	63866,59
614,79	64022,01
614,99	63877,06
615,18	63986,96
615,37	63903,57
615,57	63994,70
615,76	64003,92
615,95	63987,19
616,15	63944,18
616,34	63818,92
616,53	63879,10
616,73	63938,27
616,92	63965,12
617,11	63968,65
617,30	63965,69
617,50	63953,06
617,69	63838,03
617,88	63864,65
618,08	63828,36
618,27	63978,66
618,46	63953,51
618,66	63994,24
618,85	64012,68
619,04	63905,73
619,24	63823,69
619,43	63892,87
619,62	63968,19
619,82	63965,91
620,01	64008,24
620,20	64038,16
620,39	63986,62
620,59	63906,41
620,78	63898,33
620,97	63863,97
621,17	63892,42
621,36	63942,70
621,55	63961,14
621,74	63961,82
621,94	64073,77
622,13	63801,28
622,32	63970,92
622,52	63990,15
622,71	63929,39
622,90	63960,91
623,09	63973,65
623,29	63987,30
623,48	63943,50
623,67	64035,77
623,86	63893,78
624,06	64081,85
624,25	63955,11
624,44	63822,33
624,64	63901,29
624,83	64005,62
625,02	63936,45
625,21	63828,13
625,41	63963,87
625,60	63947,48
625,79	64059,67
625,98	64015,18
626,18	63955,45
626,37	63866,70
626,56	63943,39
626,75	63981,39
626,95	63933,26
627,14	63987,99
627,33	63956,58
627,52	64013,93
627,72	63964,21
627,91	63797,98
628,10	63977,18
628,29	63934,63
628,49	63938,04
628,68	63827,34
628,87	63944,18
629,06	63805,49
629,25	63974,90
629,45	63949,99
629,64	63822,67
629,83	63909,60
630,02	64003,35
630,22	63872,05
630,41	64005,39
630,60	63908,57
630,79	63958,63
630,98	63969,44
631,18	64030,65
631,37	64056,82
631,56	63987,42
631,75	63881,27
631,94	63963,53
632,14	63990,49
632,33	64033,95
632,52	64066,83
632,71	63319,33
632,90	63930,64
633,10	63964,55
633,29	63953,63
633,48	63967,05
633,67	63949,87
633,86	63884,91
634,06	63977,75
634,25	63916,76
634,44	63873,30
634,63	63943,50
634,82	63990,15
635,02	63961,82
635,21	63993,33
635,40	64023,94
635,59	64004,71
635,78	63907,32
635,97	63930,76
636,17	63959,09
636,36	63898,90
636,55	63905,73
636,74	63926,89
636,93	63929,62
637,12	63875,69
637,32	63938,61
637,51	63990,60
637,70	63884,68
637,89	63989,12
638,08	64018,14
638,27	63850,20
638,47	63925,87
638,66	63915,85
638,85	64031,45
639,04	63971,83
639,23	63871,37
639,42	63918,13
639,62	63836,89
639,81	63871,48
640,00	63892,87
640,19	63909,25
640,38	63937,58
640,57	63876,94
640,76	55411,89
640,95	57348,93
641,15	35880,07
641,34	35999,31
641,53	7911,42
641,72	12810,27
641,91	6594,12
642,10	6420,27
642,29	6254,16
642,49	6069,27
642,68	5995,88
642,87	6030,93
643,06	5866,63
643,25	5898,95
643,44	5878,69
643,63	5790,97
643,82	5795,41
644,01	5799,85
644,21	5766,17
644,40	5723,16
644,59	5632,37
644,78	5696,99
644,97	5584,70
645,16	5661,38
645,35	5576,05
645,54	5635,90
645,73	5542,71
645,92	5518,93
646,12	5497,32
646,31	5441,79
646,50	5412,78
646,69	5398,33
646,88	5330,29
647,07	5302,76
647,26	5237,79
647,45	5202,64
647,64	5163,95
647,83	5178,63
648,02	5162,93
648,22	5118,78
648,41	5132,21
648,60	5104,11
648,79	5180,79
648,98	5162,82
649,17	5074,75
649,36	5055,64
649,55	5051,43
649,74	5023,33
649,93	5020,03
650,12	5029,70
650,31	4998,18
650,50	4913,19
650,69	4949,03
650,88	4966,21
651,08	4789,86
651,27	4825,01
651,46	4756,29
651,65	4679,84
651,84	4623,18
652,03	4595,19
652,22	4577,44
652,41	4513,15
652,60	4540,12
652,79	4536,14
652,98	4501,55
653,17	4489,83
653,36	4459,34
653,55	4394,94
653,74	4341,69
653,93	4360,47
654,12	4272,52
654,31	4258,07
654,50	4275,59
654,69	4210,51
654,88	4224,39
655,07	4223,94
655,26	4229,28
655,45	4280,82
655,64	4246,92
655,83	4248,85
656,02	4227,01
656,21	4241,12
656,40	4192,87
656,59	4190,26
656,78	4149,41
656,97	4109,70
657,17	4051,68
657,36	4028,35
657,55	3981,59
657,74	3984,55
657,93	4007,65
658,12	3975,45
658,31	3944,50
658,50	3958,72
658,69	3900,24
658,87	3932,33
659,06	3844,04
659,25	3907,41
659,44	3939,72
659,63	3932,21
659,82	3951,78
660,01	3890,69
660,20	3820,60
660,39	3764,51
660,58	3708,53
660,77	3668,94
660,96	3654,15
661,15	3522,51
661,34	3514,09
661,53	3476,31
661,72	3515,11
661,91	3426,82
662,10	3420,79
662,29	3393,94
662,48	3378,58
662,67	3370,73
662,86	3336,94
663,05	3318,73
663,24	3347,97
663,43	3305,99
663,62	3305,88
663,81	3285,74
664,00	3267,42
664,19	3229,65
664,38	3148,41
664,57	3160,02
664,76	3170,94
664,94	3151,14
665,13	3200,86
665,32	3221,68
665,51	3278,46
665,70	3264,12
665,89	3277,66
666,08	3220,09
666,27	3287,22
666,46	3456,86
666,65	3718,31
666,84	3961,80
667,03	4181,50
667,22	4277,07
667,41	4210,51
667,60	3981,37
667,78	3729,24
667,97	3485,19
668,16	3287,22
668,35	3139,88
668,54	3037,25
668,73	2941,91
668,92	2847,70
669,11	2829,61
669,30	2745,19
669,49	2768,63
669,68	2754,75
669,86	2764,64
670,05	2736,54
670,24	2692,51
670,43	2672,14
670,62	2649,05
670,81	2652,69
671,00	2628,00
671,19	2614,46
671,38	2561,10
671,57	2542,67
671,75	2493,29
671,94	2405,34
672,13	2428,55
672,32	2430,71
672,51	2370,64
672,70	2363,92
672,89	2330,13
673,08	2354,82
673,26	2324,22
673,45	2286,56
673,64	2319,32
673,83	2416,60
674,02	2763,73
674,21	3209,17
674,40	3718,77
674,59	4014,02
674,77	4238,27
674,96	4066,24
675,15	3699,54
675,34	3260,82
675,53	2942,70
675,72	2663,04
675,91	2496,93
676,09	2380,65
676,28	2298,16
676,47	2123,17
676,66	2082,22
676,85	2034,20
677,04	1978,22
677,22	1914,62
677,41	1909,96
677,60	1877,87
677,79	1833,39
677,98	1796,52
678,17	1831,11
678,36	1794,70
678,54	1831,45
678,73	1791,40
678,92	1785,03
679,11	1775,25
679,30	1755,00
679,48	1750,90
679,67	1752,83
679,86	1771,15
680,05	1735,31
680,24	1710,85
680,43	1682,86
680,61	1669,66
680,80	1647,82
680,99	1664,20
681,18	1647,82
681,37	1664,88
681,55	1680,47
681,74	1615,85
681,93	1648,73
682,12	1635,53
682,31	1567,15
682,49	1570,22
682,68	1556,57
682,87	1535,29
683,06	1487,62
683,25	1504,12
683,43	1529,83
683,62	1467,03
683,81	1512,08
684,00	1503,89
684,19	1499,11
684,37	1533,36
684,56	1498,43
684,75	1473,85
684,94	1500,25
685,12	1439,72
685,31	1418,45
685,50	1468,17
685,69	1564,31
685,88	1872,53
686,06	2322,40
686,25	2735,06
686,44	3029,17
686,63	3170,48
686,81	3110,41
687,00	2799,35
687,19	2484,53
687,38	2202,02
687,56	2032,27
687,75	1924,29
687,94	1787,42
688,13	1710,40
688,31	1655,90
688,50	1589,11
688,69	1548,83
688,88	1482,62
689,06	1499,11
689,25	1517,77
689,44	1535,75
689,63	1491,15
689,81	1514,47
690,00	1528,24
690,19	1504,01
690,38	1446,55
690,56	1400,58
690,75	1340,74
690,94	1288,51
691,13	1273,38
691,31	1245,62
691,50	1267,47
691,69	1243,00
691,87	1290,90
692,06	1365,88
692,25	1453,83
692,44	1628,93
692,62	1891,98
692,81	2099,51
693,00	2244,57
693,18	2270,63
693,37	2219,54
693,56	2035,23
693,75	1836,91
693,93	1738,61
694,12	1651,00
694,31	1644,63
694,49	1648,27
694,68	1844,76
694,87	3209,17
695,05	11048,91
695,24	34944,15
695,43	63999,36
695,62	64004,14
695,80	63998,34
695,99	63850,43
696,18	63985,94
696,36	63825,40
696,55	63960,45
696,74	64058,98
696,92	63853,16
697,11	63925,41
697,30	63858,17
697,48	63961,25
697,67	60122,56
697,86	29451,27
698,04	8550,95
698,23	6737,36
698,42	5140,40
698,60	3789,08
698,79	2803,90
698,98	2144,34
699,16	1749,99
699,35	1526,76
699,54	1362,35
699,72	1274,63
699,91	1194,19
700,10	1135,14
700,28	1108,75
700,47	1089,97
700,66	1046,28
700,84	1060,51
701,03	1040,82
701,21	1037,75
701,40	1032,63
701,59	1161,08
701,77	1450,42
701,96	1849,77
702,15	2261,41
702,33	2518,89
702,52	2698,54
702,71	2586,81
702,89	2412,62
703,08	2059,80
703,26	1812,00
703,45	1643,95
703,64	1455,76
703,82	1350,29
704,01	1244,71
704,20	1184,64
704,38	1154,26
704,57	1166,43
704,75	1203,86
704,94	1474,08
705,13	3177,31
705,31	11004,87
705,50	28772,14
705,68	52044,69
705,87	63886,27
706,06	63894,69
706,24	63975,70
706,43	64023,49
706,61	63916,08
706,80	57220,59
706,99	37115,45
707,17	26727,93
707,36	19520,44
707,54	13999,35
707,73	10192,51
707,92	7642,45
708,10	5998,39
708,29	4837,42
708,47	3787,49
708,66	2822,67
708,84	2099,05
709,03	1624,15
709,22	1338,92
709,40	1218,20
709,59	1147,77
709,77	1192,15
709,96	1167,57
710,14	1195,22
710,33	1188,05
710,52	1139,92
710,70	1117,39
710,89	1000,55
711,07	994,29
711,26	1000,55
711,44	989,17
711,63	1009,65
711,81	1011,70
712,00	1035,59
712,19	1019,09
712,37	1013,29
712,56	946,73
712,74	926,25
712,93	955,26
713,11	1107,38
713,30	1941,13
713,48	3807,40
713,67	6287,95
713,85	8514,43
714,04	9944,25
714,22	10414,49
714,41	9767,90
714,59	7888,55
714,78	6044,81
714,97	4685,98
715,15	3697,84
715,34	2955,22
715,52	2347,31
715,71	1910,64
715,89	1682,06
716,08	1470,44
716,26	1328,68
716,45	1162,22
716,63	1099,99
716,82	1022,05
717,00	1004,64
717,19	965,39
717,37	935,69
717,56	933,87
717,74	940,81
717,93	962,43
718,11	949,01
718,30	941,50
718,48	959,93
718,67	980,29
718,85	926,25
719,04	931,14
719,22	931,60
719,41	946,73
719,59	1027,28
719,78	1127,18
719,96	1152,55
720,15	1185,89
720,33	1216,72
720,52	1102,60
720,70	1033,54
720,88	1018,07
721,07	986,78
721,25	966,19
721,44	932,39
721,62	878,35
721,81	843,76
721,99	856,28
722,18	832,73
722,36	854,91
722,55	845,24
722,73	845,47
722,92	814,98
723,10	848,77
723,28	858,21
723,47	862,08
723,65	886,88
723,84	869,82
724,02	902,24
724,21	862,99
724,39	864,70
724,58	826,13
724,76	855,03
724,94	856,28
725,13	848,43
725,31	935,58
725,50	1030,01
725,68	1570,00
725,87	3961,68
726,05	10144,27
726,23	19060,10
726,42	27769,09
726,60	33411,59
726,79	35439,08
726,97	33599,20
727,16	27208,06
727,34	20467,06
727,52	14595,87
727,71	10975,18
727,89	7850,55
728,08	5796,43
728,26	4348,63
728,44	3367,43
728,63	2558,60
728,81	1989,37
729,00	1616,87
729,18	1344,26
729,36	1116,37
729,55	1037,07
729,73	969,94
729,92	948,10
730,10	987,01
730,28	1042,87
730,47	1145,50
730,65	1186,12
730,84	1207,28
731,02	1148,57
731,20	1097,48
731,39	1014,65
731,57	965,96
731,75	910,32
731,94	890,30
732,12	852,30
732,31	809,29
732,49	788,47
732,67	796,55
732,86	816,23
733,04	775,84
733,22	796,66
733,41	803,49
733,59	818,96
733,78	861,40
733,96	946,96
734,14	1137,19
734,33	1350,52
734,51	1618,58
734,69	1814,39
734,88	1918,26
735,06	1847,95
735,24	1706,41
735,43	1511,74
735,61	1371,91
735,79	1371,46
735,98	1630,18
736,16	2099,85
736,34	2625,15
736,53	3101,08
736,71	4211,31
736,89	9744,69
737,08	29461,62
737,26	63521,73
737,44	64006,53
737,63	63958,29
737,81	64039,19
737,99	63917,33
738,18	63925,18
738,36	63818,46
738,54	63956,02
738,73	63923,70
738,91	63859,53
739,09	64007,22
739,28	63988,56
739,46	63976,84
739,64	31694,59
739,82	6292,04
740,01	4488,24
740,19	3492,47
740,37	2729,71
740,56	2228,65
740,74	1828,15
740,92	1547,58
741,11	1352,34
741,29	1211,49
741,47	1143,68
741,65	1109,54
741,84	1088,38
742,02	1068,58
742,20	1069,15
742,39	1126,61
742,57	1252,33
742,75	1364,52
742,93	1396,03
743,12	1366,91
743,30	1333,34
743,48	1218,43
743,67	1099,19
743,85	1010,79
744,03	954,69
744,21	873,80
744,40	866,86
744,58	861,28
744,76	862,88
744,94	856,73
745,13	821,12
745,31	824,53
745,49	834,55
745,67	869,02
745,86	909,87
746,04	992,81
746,22	1104,31
746,40	1132,87
746,59	1237,43
746,77	1288,51
746,95	1346,08
747,13	1356,32
747,32	1325,72
747,50	1376,92
747,68	1431,19
747,86	1493,42
748,05	1511,74
748,23	1576,37
748,41	1640,54
748,59	1820,08
748,77	3238,41
748,96	10313,23
749,14	30725,56
749,32	60835,14
749,50	63907,66
749,69	63940,43
749,87	63939,97
750,05	63953,40
750,23	64029,63
750,41	64014,38
750,60	63930,42
750,78	64030,43
750,96	63938,04
751,14	63948,17
751,32	63977,97
751,51	64028,04
751,69	64046,70
751,87	64081,17
752,05	63913,46
752,23	63957,38
752,42	63993,56
752,60	63944,52
752,78	63977,63
752,96	41570,12
753,14	5544,53
753,33	2869,20
753,51	2401,36
753,69	2051,72
753,87	1723,59
754,05	1544,62
754,23	1368,84
754,42	1245,05
754,60	1189,30
754,78	1104,99
754,96	1048,33
755,14	1026,37
755,32	999,29
755,51	982,11
755,69	971,65
755,87	973,47
756,05	980,18
756,23	966,64
756,41	952,65
756,60	963,80
756,78	970,96
756,96	960,72
757,14	982,80
757,32	1028,76
757,50	1028,08
757,68	1050,49
757,87	1040,82
758,05	1051,29
758,23	1080,08
758,41	1059,25
758,59	1046,06
758,77	1078,48
758,95	1073,36
759,14	1106,02
759,32	1150,28
759,50	1287,15
759,68	1516,98
759,86	1842,60
760,04	2237,63
760,22	2508,88
760,40	2598,42
760,59	2560,19
760,77	2412,73
760,95	2244,12
761,13	2108,27
761,31	2101,22
761,49	2370,75
761,67	3172,76
761,85	7363,02
762,03	30602,23
762,22	63914,26
762,40	63959,88
762,58	64022,80
762,76	64004,60
762,94	63986,05
763,12	63998,91
763,30	63898,79
763,48	63972,17
763,66	64048,40
763,84	64040,89
764,02	64003,01
764,21	64013,02
764,39	63801,51
764,57	64016,32
764,75	64017,00
764,93	63962,62
765,11	64019,62
765,29	63977,06
765,47	63976,15
765,65	63970,81
765,83	64028,15
766,01	63984,57
766,19	63946,00
766,37	63832,00
766,56	63925,41
766,74	64008,13
766,92	64007,78
767,10	64028,26
767,28	63958,75
767,46	63936,90
767,64	64025,19
767,82	63927,57
768,00	63997,66
768,18	64012,68
768,36	63933,15
768,54	63848,84
768,72	63862,15
768,90	64034,86
769,08	64058,19
769,26	63960,68
769,44	63994,59
769,62	63949,76
769,80	63916,99
769,98	63948,28
770,16	64039,07
770,34	63982,30
770,52	64042,26
770,71	63969,90
770,89	64001,30
771,07	63834,39
771,25	63991,86
771,43	63896,40
771,61	63913,01
771,79	63965,12
771,97	63989,12
772,15	63975,24
772,33	63969,10
772,51	63849,18
772,69	64047,26
772,87	63934,06
773,05	63931,33
773,23	63903,57
773,41	63939,86
773,59	63908,34
773,77	63984,57
773,95	63920,86
774,13	63939,18
774,31	63890,03
774,49	63922,00
774,67	64013,70
774,85	63976,61
775,03	63967,96
775,21	63938,95
775,39	64019,96
775,57	64019,16
775,75	63907,21
775,93	64008,35
776,10	64012,11
776,28	63906,52
776,46	64028,26
776,64	29041,56
776,82	29397,57
777,00	1003,96
777,18	899,85
777,36	849,68
777,54	849,34
777,72	805,42
777,90	795,64
778,08	802,80
778,26	763,32
778,44	773,56
778,62	790,63
778,80	816,12
778,98	914,53
779,16	1001,00
779,34	1068,47
779,52	1063,24
779,70	1065,40
779,88	981,09
780,05	920,68
780,23	846,49
780,41	805,53
780,59	780,39
780,77	781,19
780,95	749,67
781,13	775,16
781,31	734,54
781,49	753,54
781,67	742,27
781,85	738,86
782,03	723,96
782,21	723,16
782,39	734,77
782,56	739,77
782,74	728,85
782,92	716,56
783,10	718,04
783,28	722,71
783,46	721,00
783,64	737,61
783,82	747,96
784,00	766,28
784,18	758,66
784,35	781,30
784,53	791,31
784,71	818,73
784,89	842,06
785,07	871,30
785,25	908,62
785,43	890,53
785,61	902,13
785,79	869,36
785,96	866,86
786,14	881,31
786,32	850,25
786,50	838,64
786,68	789,15
786,86	798,94
787,04	746,37
787,22	772,54
787,39	776,18
787,57	800,30
787,75	797,34
787,93	852,52
788,11	957,99
788,29	1036,61
788,47	1097,83
788,65	1140,04
788,82	1123,77
789,00	1034,22
789,18	945,59
789,36	903,72
789,54	875,62
789,72	843,54
789,89	889,96
790,07	869,70
790,25	902,93
790,43	885,29
790,61	931,26
790,79	932,39
790,96	959,25
791,14	1016,82
791,32	1031,83
791,50	1125,13
791,68	1131,28
791,86	1228,67
792,03	1222,75
792,21	1188,62
792,39	1225,60
792,57	1212,51
792,75	1281,80
792,93	1405,13
793,10	1819,17
793,28	3536,50
793,46	12180,98
793,64	38841,09
793,82	63849,18
793,99	63927,46
794,17	64078,21
794,35	63984,23
794,53	63973,77
794,71	64121,33
794,88	64052,16
795,06	63996,18
795,24	64027,58
795,42	54235,22
795,60	9894,99
795,77	5543,05
795,95	4432,60
796,13	3856,10
796,31	3355,14
796,49	3046,35
796,66	2800,48
796,84	2607,86
797,02	2454,60
797,20	2329,34
797,37	2167,66
797,55	2035,45
797,73	1869,57
797,91	1807,22
798,08	1749,65
798,26	1750,10
798,44	1735,88
798,62	1805,28
798,80	1959,00
798,97	2315,00
799,15	4204,82
799,33	12567,47
799,51	31011,94
799,68	52403,31
799,86	63944,30
800,04	63985,94
800,22	63961,82
800,39	64040,21
800,57	63893,78
800,75	63960,11
800,93	63960,11
801,10	63958,06
801,28	63878,88
801,46	64015,86
801,63	64000,39
801,81	63960,68
801,99	64016,66
802,17	57628,13
802,34	17944,76
802,52	5990,19
802,70	5092,39
802,88	4594,39
803,05	4083,65
803,23	3670,53
803,41	3313,95
803,58	3018,02
803,76	2813,00
803,94	2625,84
804,12	2435,38
804,29	2265,51
804,47	2075,05
804,65	1943,29
804,82	1796,18
805,00	1713,69
805,18	1692,19
805,35	1645,88
805,53	1626,43
805,71	1603,90
805,89	1631,55
806,06	1608,00
806,24	1653,85
806,42	1722,11
806,59	1796,52
806,77	1907,91
806,95	2019,75
807,12	2163,22
807,30	2305,33
807,48	2449,94
807,65	2657,01
807,83	2852,25
808,01	3119,40
808,18	3476,54
808,36	3806,38
808,54	4323,38
808,71	5010,01
808,89	8872,26
809,07	24638,77
809,24	58680,56
809,42	63871,71
809,60	64043,96
809,77	63961,36
809,95	63942,14
810,13	64009,95
810,30	63985,26
810,48	63850,77
810,66	63999,25
810,83	63957,27
811,01	63967,96
811,18	63990,04
811,36	64107,22
811,54	63994,02
811,71	63975,24
811,89	63944,41
812,07	64039,53
812,24	63838,03
812,42	64025,76
812,59	63995,27
812,77	63983,89
812,95	63963,64
813,12	63981,50
813,30	64042,71
813,48	64029,63
813,65	63957,27
813,83	63949,87
814,00	63919,95
814,18	63921,54
814,36	64023,14
814,53	63994,02
814,71	64009,72
814,88	63929,62
815,06	64041,92
815,24	63910,28
815,41	64062,51
815,59	64001,75
815,76	64033,50
815,94	63886,39
816,12	64013,25
816,29	63902,20
816,47	63976,61
816,64	63860,22
816,82	64060,12
817,00	63909,94
817,17	64006,31
817,35	63821,31
817,52	64004,71
817,70	63945,66
817,87	63934,97
818,05	64037,71
818,23	64001,75
818,40	63880,81
818,58	63965,46
818,75	64028,38
818,93	64022,46
819,10	63960,00
819,28	64027,13
819,46	63979,80
819,63	64024,74
819,81	63907,55
819,98	64101,19
820,16	63906,86
820,33	64074,91
820,51	63861,92
820,68	63967,17
820,86	63959,66
821,03	63894,92
821,21	63949,87
821,39	63829,61
821,56	63976,72
821,74	64046,35
821,91	64036,23
822,09	64020,53
822,26	64032,47
822,44	64081,62
822,61	64053,07
822,79	63956,93
822,96	64005,28
823,14	64046,35
823,31	64034,75
823,49	63913,24
823,66	63977,29
823,84	64008,35
824,01	64025,08
824,19	64086,18
824,36	63969,21
824,54	63970,01
824,71	63910,62
824,89	63965,91
825,06	63879,56
825,24	63999,59
825,41	63967,39
825,59	63970,12
825,76	63944,64
825,94	64019,84
826,11	63912,89
826,29	64030,99
826,46	63959,88
826,64	63920,75
826,81	63939,29
826,99	63993,56
827,16	64033,84
827,34	64072,07
827,51	64010,63
827,69	63817,66
827,86	63948,17
828,04	63983,44
828,21	63995,61
828,39	63944,18
828,56	63980,59
828,74	63944,07
828,91	64014,95
829,09	63781,14
829,26	64020,19
829,43	63933,15
829,61	63988,90
829,78	64032,70
829,96	63957,27
830,13	64051,59
830,31	63945,78
830,48	63954,88
830,66	64031,34
830,83	64053,64
831,01	64032,93
831,18	64015,29
831,35	63999,14
831,53	63945,66
831,70	63925,87
831,88	63803,78
832,05	63966,60
832,23	64024,28
832,40	63952,94
832,57	63908,46
832,75	64058,30
832,92	63933,37
833,10	63869,89
833,27	63979,00
833,45	64005,05
833,62	64000,05
833,79	63948,28
833,97	64014,95
834,14	63987,76
834,32	63944,30
834,49	64053,52
834,66	64047,95
834,84	64059,21
835,01	63918,01
835,19	43804,46
835,36	63997,89
835,53	1020,80
835,71	15111,16
835,88	920,22
836,06	899,29
836,23	887,91
836,40	913,17
836,58	902,13
836,75	926,36
836,93	969,14
837,10	994,29
837,27	999,98
837,45	1062,21
837,62	1098,96
837,79	1173,83
837,97	1297,62
838,14	1363,49
838,32	1522,66
838,49	1709,94
838,66	2012,81
838,84	2396,35
839,01	3141,24
839,18	4750,26
839,36	8735,61
839,53	17142,75
839,70	31839,54
839,88	49821,96
840,05	63699,91
840,23	64005,85
840,40	64037,37
840,57	63744,96
840,75	51867,88
840,92	37623,92
841,09	32408,76
841,27	39849,60
841,44	57275,31
841,61	63905,84
841,79	63989,47
841,96	64004,48
842,13	64081,85
842,31	63978,32
842,48	64004,60
842,65	44416,92
842,83	20198,32
843,00	13609,09
843,17	10880,18
843,35	8955,54
843,52	7488,74
843,69	6519,59
843,86	5817,37
844,04	5040,05
844,21	4412,92
844,38	3860,99
844,56	3424,55
844,73	3080,26
844,90	2819,26
845,08	2549,61
845,25	2353,57
845,42	2135,12
845,60	1939,77
845,77	1647,82
845,94	1452,58
846,11	1222,07
846,29	1053,11
846,46	925,68
846,63	852,41
846,81	762,41
846,98	757,98
847,15	727,26
847,32	698,36
847,50	660,93
847,67	651,71
847,84	644,88
848,01	616,44
848,19	614,28
848,36	616,10
848,53	618,49
848,71	605,74
848,88	617,69
849,05	636,58
849,22	660,93
849,40	682,09
849,57	680,15
849,74	742,05
849,91	764,80
850,09	855,37
850,26	1006,01
850,43	1335,05
850,60	2034,43
850,78	3493,61
850,95	6033,77
851,12	10071,68
851,29	14708,17
851,47	18772,93
851,64	20584,82
851,81	20518,94
851,98	17815,05
852,15	13812,87
852,33	9370,25
852,50	5926,71
852,67	3953,60
852,84	3070,70
853,02	2566,45
853,19	2211,24
853,36	1901,54
853,53	1711,65
853,70	1534,95
853,88	1384,43
854,05	1270,42
854,22	1156,76
854,39	1089,41
854,56	1050,38
854,74	946,62
854,91	917,72
855,08	849,57
855,25	798,59
855,42	723,27
855,60	686,75
855,77	628,84
855,94	536,34
856,11	496,63
856,28	486,39
856,46	446,57
856,63	433,71
856,80	412,21
856,97	406,52
857,14	391,50
857,31	404,82
857,49	380,35
857,66	379,90
857,83	334,27
858,00	349,75
858,17	338,03
858,34	334,05
858,52	338,48
858,69	357,83
858,86	338,03
859,03	321,53
859,20	332,91
859,37	327,33
859,55	336,55
859,72	353,96
859,89	346,33
860,06	362,49
860,23	336,32
860,40	367,16
860,57	329,27
860,75	327,33
860,92	300,60
861,09	286,94
861,26	310,84
861,43	300,71
861,60	282,28
861,77	281,37
861,95	277,61
862,12	262,14
862,29	246,21
862,46	258,73
862,63	247,01
862,80	240,52
862,97	251,79
863,14	228,58
863,31	231,19
863,49	207,41
863,66	226,07
863,83	241,55
864,00	237,22
864,17	235,52
864,34	245,98
864,51	245,53
864,68	277,27
864,85	273,06
865,02	279,78
865,20	344,29
865,37	407,66
865,54	582,76
865,71	825,56
865,88	1207,51
866,05	1680,36
866,22	2115,32
866,39	2370,30
866,56	2419,22
866,73	2224,21
866,90	1874,01
867,07	1481,71
867,25	1175,53
867,42	818,73
867,59	649,77
867,76	581,62
867,93	536,91
868,10	487,53
868,27	473,31
868,44	428,37
868,61	361,58
868,78	369,66
868,95	336,21
869,12	307,54
869,29	335,53
869,46	288,65
869,63	315,27
869,80	286,60
869,97	285,46
870,14	278,52
870,32	248,71
870,49	247,58
870,66	239,50
870,83	211,28
871,00	178,63
871,17	194,10
871,34	192,05
871,51	185,34
871,68	210,37
871,85	179,20
872,02	172,26
872,19	208,21
872,36	211,28
872,53	199,11
872,70	185,34
872,87	205,25
873,04	204,91
873,21	203,66
873,38	224,82
873,55	208,44
873,72	192,40
873,89	190,01
874,06	203,66
874,23	217,77
874,40	178,29
874,57	204,34
874,74	151,78
874,91	168,39
875,08	198,08
875,25	166,34
875,42	175,67
875,59	199,68
875,76	209,12
875,93	224,48
876,10	184,20
876,27	197,17
876,44	195,58
876,61	215,15
876,78	189,55
876,95	180,34
877,12	158,72
877,29	185,91
877,46	176,35
877,62	169,07
877,79	171,01
877,96	166,34
878,13	173,51
878,30	163,95
878,47	164,63
878,64	178,74
878,81	164,63
878,98	169,98
879,15	157,58
879,32	160,65
879,49	156,90
879,66	193,53
879,83	158,03
880,00	160,65
880,17	173,74
880,34	151,32
880,51	149,73
880,67	158,15
880,84	175,22
881,01	188,75
881,18	168,62
881,35	172,94
881,52	160,88
881,69	144,61
881,86	154,05
882,03	155,87
882,20	165,32
882,37	166,34
882,54	150,18
882,70	147,11
882,87	153,03
883,04	173,39
883,21	171,01
883,38	146,77
883,55	161,90
883,72	173,85
883,89	167,82
884,06	169,18
884,23	149,16
884,39	158,49
884,56	151,55
884,73	161,22
884,90	164,75
885,07	176,81
885,24	163,38
885,41	172,71
885,58	157,92
885,74	152,91
885,91	126,86
886,08	166,34
886,25	149,84
886,42	151,89
886,59	154,85
886,76	174,19
886,93	164,29
887,09	145,18
887,26	148,48
887,43	125,95
887,60	141,31
887,77	180,90
887,94	161,45
888,10	174,53
888,27	137,21
888,44	147,68
888,61	150,98
888,78	114,34
888,95	168,16
889,12	150,75
889,28	145,41
889,45	174,42
889,62	157,24
889,79	132,78
889,96	136,76
890,13	126,97
890,29	137,21
890,46	145,86
890,63	138,24
890,80	162,70
890,97	149,96
891,13	136,65
891,30	137,90
891,47	152,12
891,64	168,16
891,81	152,12
891,98	169,87
892,14	146,54
892,31	149,27
892,48	159,74
892,65	146,32
892,82	148,93
892,98	147,91
893,15	108,20
893,32	165,43
