SpectraSuite Datei
++++++++++++++++++++++++++++++++++++
Datum: Tue Mar 08 11:08:32 CET 2016
Benutzer: Admin
Dark-Spektrum vorhanden: Ja
Referenz-Spektrum vorhanden: Nein
Zahl der probierten Teilspektren: 1
Spektrometer: USB4F05832
Integrationszeit (usec): 100000 (USB4F05832)
Spektren Durchschnitt berechnet: 40 (USB4F05832)
Boxcar Glï¿½ttung: 0 (USB4F05832)
Dunkelstromkorrektur: Nein (USB4F05832)
Puls/Lampe aktiviert: Nein (USB4F05832)
Correct for Detector Non-linearity: Nein (USB4F05832)
Streulichtkorrektur: Nein (USB4F05832)
Anzahl Pixel in verarbeitetem Spektrum: 3648
>>>>>Begin Processed Spectral Data<<<<<
177,54	1285,97
177,75	1285,97
177,97	1285,97
178,19	1286,12
178,41	1272,61
178,63	1442,59
178,85	1348,64
179,07	1381,82
179,29	1407,98
179,51	1349,15
179,73	1408,39
179,95	1390,21
180,17	1390,31
180,39	1446,94
180,61	1410,90
180,83	1454,93
181,05	1369,02
181,27	1399,07
181,49	1399,07
181,71	1402,45
181,92	1503,98
182,14	1409,26
182,36	1387,40
182,58	1445,92
182,80	1393,59
183,02	1489,64
183,24	1447,71
183,46	1425,39
183,68	1406,29
183,90	1435,63
184,12	1385,30
184,34	1455,24
184,56	1418,47
184,78	1374,60
185,00	1414,28
185,21	1452,52
185,43	1384,38
185,65	1430,76
185,87	1396,36
186,09	1482,99
186,31	1418,68
186,53	1423,18
186,75	1438,13
186,97	1458,97
187,19	1489,90
187,41	1382,38
187,63	1475,00
187,84	1365,38
188,06	1442,64
188,28	1405,01
188,50	1439,57
188,72	1478,68
188,94	1449,55
189,16	1386,07
189,38	1415,04
189,60	1426,67
189,82	1399,63
190,03	1434,81
190,25	1411,46
190,47	1437,83
190,69	1403,52
190,91	1374,75
191,13	1418,17
191,35	1492,87
191,57	1409,62
191,79	1422,98
192,01	1419,50
192,22	1465,88
192,44	1411,10
192,66	1444,69
192,88	1427,54
193,10	1415,20
193,32	1408,03
193,54	1489,59
193,76	1490,00
193,98	1412,07
194,19	1456,36
194,41	1398,81
194,63	1385,50
194,85	1406,08
195,07	1465,53
195,29	1366,05
195,51	1454,01
195,73	1395,13
195,94	1412,74
196,16	1417,45
196,38	1496,19
196,60	1393,34
196,82	1403,42
197,04	1414,63
197,26	1391,03
197,48	1389,80
197,69	1414,79
197,91	1380,95
198,13	1399,89
198,35	1414,58
198,57	1413,10
198,79	1451,70
199,01	1441,57
199,22	1415,61
199,44	1463,02
199,66	1417,96
199,88	1431,27
200,10	1452,32
200,32	1450,42
200,54	1446,84
200,75	1502,24
200,97	1382,79
201,19	1465,42
201,41	1455,80
201,63	1408,95
201,85	1393,59
202,06	1437,88
202,28	1402,24
202,50	1428,82
202,72	1357,85
202,94	1389,29
203,16	1399,38
203,38	1416,99
203,59	1407,01
203,81	1461,64
204,03	1367,53
204,25	1435,27
204,47	1465,27
204,69	1433,12
204,90	1395,03
205,12	1427,33
205,34	1428,77
205,56	1422,31
205,78	1394,31
206,00	1485,03
206,21	1465,99
206,43	1413,76
206,65	1440,39
206,87	1402,91
207,09	1445,71
207,30	1377,87
207,52	1451,65
207,74	1440,69
207,96	1398,30
208,18	1412,13
208,40	1405,52
208,61	1411,05
208,83	1427,08
209,05	1378,49
209,27	1359,19
209,49	1457,23
209,70	1441,57
209,92	1437,67
210,14	1385,96
210,36	1424,46
210,58	1413,97
210,79	1438,34
211,01	1371,42
211,23	1436,24
211,45	1457,39
211,67	1427,64
211,88	1374,80
212,10	1457,39
212,32	1385,66
212,54	1410,95
212,76	1409,72
212,97	1384,43
213,19	1379,10
213,41	1449,86
213,63	1392,16
213,85	1411,66
214,06	1375,11
214,28	1473,05
214,50	1402,70
214,72	1435,11
214,94	1448,53
215,15	1398,46
215,37	1404,91
215,59	1400,35
215,81	1451,86
216,02	1426,00
216,24	1432,91
216,46	1382,38
216,68	1417,86
216,90	1417,76
217,11	1467,37
217,33	1388,22
217,55	1480,17
217,77	1450,37
217,98	1449,04
218,20	1439,82
218,42	1446,02
218,64	1436,50
218,85	1480,99
219,07	1431,53
219,29	1410,08
219,51	1454,01
219,73	1419,40
219,94	1404,39
220,16	1480,99
220,38	1428,82
220,60	1402,91
220,81	1379,26
221,03	1362,67
221,25	1441,41
221,47	1361,49
221,68	1412,18
221,90	1433,83
222,12	1424,36
222,34	1423,29
222,55	1434,96
222,77	1479,56
222,99	1421,60
223,21	1437,78
223,42	1462,10
223,64	1439,52
223,86	1408,75
224,08	1427,54
224,29	1476,94
224,51	1418,42
224,73	1411,97
224,94	1430,81
225,16	1406,29
225,38	1413,41
225,60	1430,56
225,81	1405,47
226,03	1407,31
226,25	1367,22
226,47	1433,32
226,68	1444,33
226,90	1441,57
227,12	1426,15
227,33	1438,03
227,55	1412,74
227,77	1403,73
227,99	1485,03
228,20	1420,98
228,42	1429,53
228,64	1439,52
228,86	1421,90
229,07	1407,62
229,29	1388,78
229,51	1352,38
229,72	1475,77
229,94	1429,23
230,16	1441,51
230,38	1391,08
230,59	1415,25
230,81	1464,40
231,03	1427,54
231,24	1411,61
231,46	1407,88
231,68	1402,76
231,89	1408,39
232,11	1398,87
232,33	1466,76
232,55	1413,61
232,76	1437,88
232,98	1422,16
233,20	1393,23
233,41	1375,57
233,63	1405,01
233,85	1408,90
234,06	1410,79
234,28	1446,89
234,50	1382,07
234,71	1434,55
234,93	1481,30
235,15	1407,11
235,37	1372,19
235,58	1427,64
235,80	1381,51
236,02	1393,75
236,23	1434,81
236,45	1393,39
236,67	1452,62
236,88	1419,91
237,10	1433,73
237,32	1456,57
237,53	1441,10
237,75	1420,68
237,97	1362,26
238,18	1406,49
238,40	1440,29
238,62	1397,12
238,83	1415,66
239,05	1404,34
239,27	1404,14
239,48	1385,86
239,70	1421,19
239,92	1466,96
240,13	1462,76
240,35	1408,75
240,57	1427,33
240,78	1442,28
241,00	1375,72
241,22	1415,86
241,43	1497,17
241,65	1428,00
241,87	1479,71
242,08	1516,62
242,30	1385,19
242,52	1422,62
242,73	1438,65
242,95	1389,80
243,16	1425,28
243,38	1488,77
243,60	1435,32
243,81	1432,61
244,03	1452,16
244,25	1378,90
244,46	1420,78
244,68	1408,44
244,90	1436,70
245,11	1385,30
245,33	1413,51
245,55	1433,48
245,76	1410,03
245,98	1414,74
246,19	1485,55
246,41	1468,29
246,63	1451,60
246,84	1469,32
247,06	1413,92
247,28	1436,96
247,49	1407,62
247,71	1394,56
247,92	1450,42
248,14	1469,47
248,36	1436,34
248,57	1455,13
248,79	1469,21
249,01	1411,87
249,22	1431,79
249,44	1435,52
249,65	1408,03
249,87	1430,56
250,09	1435,17
250,30	1446,94
250,52	1408,75
250,73	1470,65
250,95	1384,07
251,17	1439,62
251,38	1412,38
251,60	1397,74
251,81	1471,88
252,03	1483,91
252,25	1378,08
252,46	1406,03
252,68	1458,51
252,89	1439,47
253,11	1418,78
253,33	1440,75
253,54	1380,02
253,76	1437,42
253,97	1454,16
254,19	1473,05
254,41	1378,23
254,62	1453,49
254,84	1448,99
255,05	1435,27
255,27	1447,86
255,49	1475,00
255,70	1461,64
255,92	1394,92
256,13	1395,03
256,35	1444,07
256,56	1465,37
256,78	1463,79
257,00	1455,29
257,21	1420,57
257,43	1390,01
257,64	1422,67
257,86	1457,44
258,08	1427,08
258,29	1487,54
258,51	1404,50
258,72	1433,01
258,94	1470,75
259,15	1416,48
259,37	1429,38
259,59	1375,06
259,80	1443,61
260,02	1405,16
260,23	1435,11
260,45	1391,44
260,66	1443,51
260,88	1428,77
261,09	1417,55
261,31	1409,62
261,53	1455,03
261,74	1463,63
261,96	1365,64
262,17	1389,14
262,39	1434,40
262,60	1411,10
262,82	1437,21
263,03	1397,94
263,25	1444,89
263,46	1407,52
263,68	1441,97
263,90	1445,71
264,11	1407,06
264,33	1480,53
264,54	1455,08
264,76	1428,25
264,97	1464,20
265,19	1402,14
265,40	1462,20
265,62	1416,22
265,83	1461,64
266,05	1425,74
266,26	1411,31
266,48	1497,07
266,70	1488,51
266,91	1380,69
267,13	1435,98
267,34	1406,95
267,56	1446,79
267,77	1412,38
267,99	1417,09
268,20	1472,69
268,42	1424,62
268,63	1382,17
268,85	1530,81
269,06	1468,44
269,28	1455,24
269,49	1439,98
269,71	1452,62
269,92	1412,79
270,14	1403,93
270,35	1424,87
270,57	1452,11
270,78	1433,78
271,00	1440,95
271,21	1516,42
271,43	1404,75
271,64	1413,71
271,86	1460,51
272,07	1386,17
272,29	1496,40
272,50	1415,97
272,72	1480,68
272,93	1458,10
273,15	1473,36
273,36	1448,53
273,58	1434,86
273,79	1424,62
274,01	1426,56
274,22	1401,94
274,44	1425,23
274,65	1442,54
274,87	1443,05
275,08	1449,30
275,30	1456,41
275,51	1524,76
275,73	1508,23
275,94	1409,72
276,16	1407,31
276,37	1426,00
276,59	1438,65
276,80	1426,21
277,02	1444,43
277,23	1405,16
277,45	1442,59
277,66	1359,60
277,88	1459,79
278,09	1496,91
278,30	1454,57
278,52	1392,36
278,73	1525,38
278,95	1433,78
279,16	1491,33
279,38	1450,58
279,59	1440,95
279,81	1412,74
280,02	1441,26
280,24	1393,23
280,45	1451,70
280,67	1481,45
280,88	1472,90
281,09	1395,59
281,31	1400,81
281,52	1436,50
281,74	1511,20
281,95	1435,27
282,17	1437,37
282,38	1458,26
282,60	1439,21
282,81	1474,69
283,02	1422,01
283,24	1397,79
283,45	1477,30
283,67	1401,27
283,88	1466,81
284,10	1408,29
284,31	1452,42
284,53	1422,78
284,74	1429,02
284,95	1429,12
285,17	1434,65
285,38	1405,37
285,60	1415,81
285,81	1405,73
286,03	1465,32
286,24	1446,58
286,45	1485,39
286,67	1441,31
286,88	1432,04
287,10	1465,58
287,31	1375,36
287,53	1445,76
287,74	1443,41
287,95	1393,64
288,17	1463,89
288,38	1453,03
288,60	1414,48
288,81	1414,99
289,02	1416,27
289,24	1479,04
289,45	1422,72
289,67	1456,05
289,88	1443,00
290,10	1439,06
290,31	1454,16
290,52	1433,12
290,74	1446,99
290,95	1455,80
291,17	1454,26
291,38	1403,52
291,59	1422,06
291,81	1416,22
292,02	1420,37
292,24	1453,49
292,45	1467,37
292,66	1446,38
292,88	1468,75
293,09	1439,67
293,31	1442,13
293,52	1421,80
293,73	1386,78
293,95	1451,14
294,16	1460,00
294,37	1452,52
294,59	1471,72
294,80	1487,80
295,02	1436,96
295,23	1374,60
295,44	1465,94
295,66	1412,64
295,87	1460,51
296,09	1425,18
296,30	1437,37
296,51	1405,42
296,73	1410,69
296,94	1392,31
297,15	1408,49
297,37	1383,30
297,58	1405,62
297,79	1442,18
298,01	1449,96
298,22	1463,22
298,44	1402,65
298,65	1421,90
298,86	1461,89
299,08	1401,78
299,29	1431,07
299,50	1413,15
299,72	1411,61
299,93	1444,33
300,14	1457,44
300,36	1391,08
300,57	1385,81
300,79	1421,34
301,00	1458,92
301,21	1370,86
301,43	1412,18
301,64	1418,47
301,85	1414,53
302,07	1465,53
302,28	1405,26
302,49	1461,69
302,71	1434,04
302,92	1458,61
303,13	1462,25
303,35	1432,20
303,56	1461,89
303,77	1387,50
303,99	1436,45
304,20	1444,18
304,41	1400,20
304,63	1399,84
304,84	1461,02
305,05	1455,95
305,27	1451,19
305,48	1470,49
305,69	1427,02
305,91	1452,52
306,12	1429,79
306,33	1431,22
306,55	1418,53
306,76	1409,05
306,97	1418,12
307,19	1423,44
307,40	1461,33
307,61	1465,83
307,82	1414,63
308,04	1469,72
308,25	1455,54
308,46	1427,13
308,68	1433,12
308,89	1463,32
309,10	1410,23
309,32	1420,68
309,53	1399,48
309,74	1440,80
309,96	1421,75
310,17	1410,59
310,38	1420,73
310,59	1442,79
310,81	1426,56
311,02	1440,80
311,23	1441,31
311,45	1423,75
311,66	1438,29
311,87	1402,96
312,09	1476,64
312,30	1426,46
312,51	1453,29
312,72	1439,82
312,94	1454,11
313,15	1417,66
313,36	1460,82
313,58	1406,44
313,79	1485,80
314,00	1422,93
314,21	1391,13
314,43	1433,68
314,64	1431,53
314,85	1393,18
315,06	1407,42
315,28	1485,80
315,49	1460,87
315,70	1433,94
315,92	1479,81
316,13	1508,53
316,34	1474,74
316,55	1446,63
316,77	1394,10
316,98	1480,58
317,19	1411,92
317,40	1370,76
317,62	1400,81
317,83	1488,11
318,04	1420,83
318,25	1406,65
318,47	1409,31
318,68	1429,38
318,89	1459,69
319,11	1432,55
319,32	1441,51
319,53	1462,92
319,74	1470,13
319,96	1443,05
320,17	1421,80
320,38	1383,25
320,59	1483,80
320,81	1448,17
321,02	1450,73
321,23	1425,03
321,44	1469,57
321,65	1429,02
321,87	1442,18
322,08	1479,91
322,29	1421,80
322,50	1397,07
322,72	1435,06
322,93	1426,82
323,14	1416,53
323,35	1410,13
323,57	1480,89
323,78	1431,89
323,99	1446,17
324,20	1476,84
324,41	1398,51
324,63	1445,76
324,84	1429,33
325,05	1435,01
325,26	1451,50
325,48	1441,62
325,69	1444,28
325,90	1438,24
326,11	1424,36
326,32	1439,62
326,54	1444,07
326,75	1427,64
326,96	1424,31
327,17	1459,74
327,39	1478,43
327,60	1444,94
327,81	1458,87
328,02	1460,00
328,23	1498,81
328,45	1567,00
328,66	1602,13
328,87	1726,64
329,08	1875,53
329,29	2014,43
329,51	2167,57
329,72	2335,04
329,93	2498,37
330,14	2540,20
330,35	2481,22
330,56	2309,03
330,78	2113,45
330,99	1879,68
331,20	1698,59
331,41	1563,47
331,62	1451,09
331,84	1439,36
332,05	1446,17
332,26	1468,04
332,47	1455,90
332,68	1419,65
332,90	1416,89
333,11	1396,66
333,32	1522,51
333,53	1451,75
333,74	1389,85
333,95	1463,27
334,17	1451,70
334,38	1436,55
334,59	1408,44
334,80	1429,33
335,01	1476,38
335,22	1433,83
335,44	1437,62
335,65	1407,26
335,86	1471,93
336,07	1414,53
336,28	1419,29
336,49	1415,35
336,71	1387,19
336,92	1488,46
337,13	1437,06
337,34	1401,63
337,55	1512,94
337,76	1410,85
337,97	1447,35
338,19	1448,12
338,40	1415,76
338,61	1458,72
338,82	1445,15
339,03	1444,59
339,24	1399,17
339,45	1388,57
339,67	1447,40
339,88	1431,79
340,09	1443,36
340,30	1423,24
340,51	1482,17
340,72	1425,95
340,93	1382,69
341,15	1440,34
341,36	1500,34
341,57	1422,78
341,78	1410,38
341,99	1446,79
342,20	1485,85
342,41	1419,24
342,62	1531,16
342,84	1378,33
343,05	1470,75
343,26	1406,54
343,47	1478,02
343,68	1376,75
343,89	1438,54
344,10	1438,13
344,31	1431,53
344,53	1381,00
344,74	1425,54
344,95	1412,84
345,16	1437,93
345,37	1452,01
345,58	1428,87
345,79	1399,48
346,00	1398,30
346,21	1401,58
346,42	1410,13
346,64	1409,77
346,85	1452,21
347,06	1438,60
347,27	1392,11
347,48	1483,19
347,69	1466,29
347,90	1428,51
348,11	1450,99
348,32	1398,46
348,53	1425,28
348,75	1392,21
348,96	1414,63
349,17	1392,62
349,38	1420,11
349,59	1421,75
349,80	1388,47
350,01	1493,58
350,22	1470,65
350,43	1419,86
350,64	1466,76
350,85	1487,80
351,06	1398,92
351,28	1421,50
351,49	1410,49
351,70	1436,04
351,91	1391,13
352,12	1413,56
352,33	1432,35
352,54	1377,82
352,75	1401,68
352,96	1401,63
353,17	1444,89
353,38	1435,52
353,59	1471,67
353,80	1487,29
354,01	1460,41
354,22	1412,02
354,44	1423,70
354,65	1474,74
354,86	1425,23
355,07	1394,51
355,28	1381,97
355,49	1413,71
355,70	1409,98
355,91	1453,60
356,12	1387,60
356,33	1391,08
356,54	1454,72
356,75	1448,53
356,96	1439,82
357,17	1468,24
357,38	1417,76
357,59	1433,07
357,80	1471,82
358,01	1438,80
358,22	1466,19
358,43	1444,89
358,64	1441,62
358,85	1411,26
359,07	1482,88
359,28	1406,49
359,49	1437,67
359,70	1387,45
359,91	1447,61
360,12	1418,01
360,33	1485,19
360,54	1404,86
360,75	1404,60
360,96	1408,59
361,17	1368,45
361,38	1403,01
361,59	1476,43
361,80	1386,01
362,01	1449,30
362,22	1426,31
362,43	1386,88
362,64	1429,33
362,85	1432,86
363,06	1494,10
363,27	1452,06
363,48	1465,32
363,69	1504,34
363,90	1401,73
364,11	1434,81
364,32	1405,26
364,53	1459,89
364,74	1439,21
364,95	1454,67
365,16	1420,22
365,37	1496,45
365,58	1410,95
365,79	1408,80
366,00	1460,92
366,21	1393,34
366,42	1458,20
366,63	1478,07
366,84	1403,11
367,05	1444,94
367,26	1452,37
367,47	1477,71
367,68	1430,86
367,89	1437,67
368,10	1441,46
368,31	1407,42
368,52	1451,19
368,73	1439,57
368,94	1413,71
369,15	1416,73
369,36	1399,17
369,57	1417,30
369,78	1395,18
369,99	1423,08
370,20	1454,57
370,40	1387,24
370,61	1391,44
370,82	1430,86
371,03	1427,33
371,24	1452,68
371,45	1452,98
371,66	1367,68
371,87	1443,46
372,08	1453,29
372,29	1436,80
372,50	1446,99
372,71	1426,62
372,92	1458,82
373,13	1403,22
373,34	1406,14
373,55	1391,29
373,76	1475,05
373,97	1429,12
374,18	1418,63
374,39	1423,34
374,60	1482,99
374,81	1432,50
375,01	1400,76
375,22	1435,32
375,43	1412,48
375,64	1400,86
375,85	1392,82
376,06	1414,58
376,27	1427,08
376,48	1433,89
376,69	1466,76
376,90	1447,86
377,11	1456,26
377,32	1440,34
377,53	1431,38
377,74	1427,08
377,94	1405,11
378,15	1440,29
378,36	1473,00
378,57	1367,48
378,78	1514,78
378,99	1400,66
379,20	1511,40
379,41	1435,47
379,62	1439,21
379,83	1387,24
380,04	1429,07
380,25	1436,96
380,45	1442,79
380,66	1458,05
380,87	1423,54
381,08	1445,35
381,29	1405,98
381,50	1456,57
381,71	1447,30
381,92	1409,16
382,13	1376,49
382,34	1441,77
382,55	1409,72
382,75	1447,09
382,96	1461,43
383,17	1376,54
383,38	1478,22
383,59	1480,48
383,80	1408,64
384,01	1410,54
384,22	1482,11
384,43	1447,56
384,63	1443,36
384,84	1412,38
385,05	1457,64
385,26	1429,33
385,47	1444,38
385,68	1408,34
385,89	1466,81
386,10	1412,28
386,30	1445,30
386,51	1397,69
386,72	1420,57
386,93	1388,22
387,14	1450,27
387,35	1436,14
387,56	1479,71
387,77	1391,39
387,97	1416,48
388,18	1408,85
388,39	1427,02
388,60	1419,34
388,81	1463,68
389,02	1441,67
389,23	1420,78
389,43	1428,56
389,64	1432,66
389,85	1415,76
390,06	1481,91
390,27	1388,32
390,48	1485,34
390,69	1398,87
390,89	1417,35
391,10	1414,28
391,31	1402,40
391,52	1422,78
391,73	1449,35
391,94	1409,46
392,14	1389,24
392,35	1398,30
392,56	1405,93
392,77	1418,94
392,98	1420,83
393,19	1474,03
393,39	1470,75
393,60	1443,05
393,81	1466,81
394,02	1470,24
394,23	1399,38
394,44	1389,85
394,64	1456,31
394,85	1450,27
395,06	1468,85
395,27	1442,18
395,48	1461,99
395,69	1462,10
395,89	1441,77
396,10	1432,86
396,31	1511,81
396,52	1374,60
396,73	1426,56
396,93	1410,38
397,14	1470,39
397,35	1468,04
397,56	1465,32
397,77	1394,92
397,97	1422,11
398,18	1445,00
398,39	1445,15
398,60	1434,86
398,81	1400,76
399,01	1392,98
399,22	1437,57
399,43	1479,25
399,64	1485,08
399,85	1464,76
400,05	1398,92
400,26	1362,72
400,47	1411,41
400,68	1414,28
400,89	1534,03
401,09	1404,60
401,30	1434,50
401,51	1463,58
401,72	1421,14
401,93	1519,59
402,13	1435,52
402,34	1455,03
402,55	1450,93
402,76	1431,58
402,96	1437,67
403,17	1454,77
403,38	1501,57
403,59	1465,73
403,80	1477,25
404,00	1480,37
404,21	1455,59
404,42	1426,26
404,63	1412,38
404,83	1439,62
405,04	1458,77
405,25	1483,91
405,46	1487,80
405,66	1434,40
405,87	1454,93
406,08	1417,86
406,29	1475,77
406,49	1419,24
406,70	1486,67
406,91	1362,92
407,12	1422,88
407,32	1479,91
407,53	1453,96
407,74	1446,43
407,95	1490,87
408,15	1424,46
408,36	1406,19
408,57	1464,25
408,78	1456,46
408,98	1470,85
409,19	1475,92
409,40	1419,60
409,61	1433,12
409,81	1452,93
410,02	1420,57
410,23	1434,50
410,44	1472,95
410,64	1388,32
410,85	1450,27
411,06	1420,73
411,26	1489,54
411,47	1442,23
411,68	1494,04
411,89	1437,83
412,09	1430,05
412,30	1449,65
412,51	1441,41
412,72	1429,12
412,92	1442,95
413,13	1428,25
413,34	1418,37
413,54	1429,17
413,75	1454,06
413,96	1437,62
414,17	1439,82
414,37	1473,05
414,58	1517,39
414,79	1480,12
414,99	1510,27
415,20	1501,37
415,41	1462,20
415,61	1501,88
415,82	1519,75
416,03	1501,98
416,24	1465,58
416,44	1495,22
416,65	1498,81
416,86	1493,48
417,06	1429,17
417,27	1472,69
417,48	1463,99
417,68	1447,45
417,89	1472,49
418,10	1434,55
418,30	1506,03
418,51	1519,49
418,72	1491,18
418,92	1502,65
419,13	1540,69
419,34	1514,88
419,55	1550,16
419,75	1939,17
419,96	1509,25
420,17	1561,27
420,37	1485,70
420,58	1509,30
420,79	1451,60
420,99	1460,36
421,20	1514,52
421,41	1451,91
421,61	1444,18
421,82	1422,98
422,03	1447,50
422,23	1442,38
422,44	1446,28
422,65	1509,71
422,85	1412,13
423,06	1456,77
423,26	1467,78
423,47	1469,52
423,68	1480,99
423,88	1461,02
424,09	1449,45
424,30	1466,04
424,50	1414,74
424,71	1441,82
424,92	1489,49
425,12	1543,71
425,33	1498,50
425,54	1455,39
425,74	1460,15
425,95	1499,06
426,15	1436,24
426,36	1461,53
426,57	1488,82
426,77	1497,07
426,98	1440,64
427,19	1447,40
427,39	1425,44
427,60	1505,00
427,81	1470,24
428,01	1468,60
428,22	1446,28
428,42	1439,82
428,63	1411,31
428,84	1417,14
429,04	1437,01
429,25	1448,37
429,45	1395,23
429,66	1489,18
429,87	1422,88
430,07	1538,69
430,28	1473,82
430,49	1474,33
430,69	1439,47
430,90	1436,04
431,10	1423,65
431,31	1485,44
431,52	1464,81
431,72	1437,42
431,93	1474,79
432,13	1479,35
432,34	1476,74
432,55	1446,48
432,75	1436,96
432,96	1467,47
433,16	1499,88
433,37	1491,69
433,58	1438,70
433,78	1455,85
433,99	1456,36
434,19	1403,73
434,40	1437,42
434,60	1423,75
434,81	1446,79
435,02	1425,64
435,22	1441,05
435,43	1450,17
435,63	1437,73
435,84	1436,09
436,05	1488,77
436,25	1442,23
436,46	1480,17
436,66	1456,31
436,87	1465,37
437,07	1413,25
437,28	1443,82
437,48	1421,70
437,69	1422,67
437,90	1446,58
438,10	1433,73
438,31	1470,80
438,51	1424,52
438,72	1470,70
438,92	1405,11
439,13	1444,07
439,34	1456,21
439,54	1470,13
439,75	1430,40
439,95	1458,67
440,16	1397,59
440,36	1511,25
440,57	1478,48
440,77	1481,86
440,98	1429,99
441,18	1424,67
441,39	1453,80
441,60	1411,26
441,80	1450,06
442,01	1446,48
442,21	1445,00
442,42	1456,67
442,62	1456,72
442,83	1402,09
443,03	1439,98
443,24	1469,62
443,44	1451,70
443,65	1431,38
443,85	1442,28
444,06	1454,06
444,26	1479,71
444,47	1411,82
444,67	1421,19
444,88	1454,21
445,09	1456,77
445,29	1433,32
445,50	1507,41
445,70	1395,74
445,91	1445,92
446,11	1391,70
446,32	1467,22
446,52	1476,74
446,73	1432,14
446,93	1432,66
447,14	1445,41
447,34	1440,44
447,55	1392,06
447,75	1449,25
447,96	1454,06
448,16	1483,09
448,37	1452,32
448,57	1415,81
448,78	1453,85
448,98	1462,71
449,19	1486,36
449,39	1465,12
449,60	1466,09
449,80	1443,97
450,01	1449,55
450,21	1441,82
450,42	1453,19
450,62	1446,17
450,83	1443,97
451,03	1453,29
451,23	1448,99
451,44	1490,36
451,64	1452,32
451,85	1479,96
452,05	1458,10
452,26	1452,62
452,46	1447,97
452,67	1470,49
452,87	1422,78
453,08	1449,96
453,28	1444,53
453,49	1435,47
453,69	1493,53
453,90	1455,90
454,10	1502,24
454,31	1484,88
454,51	1482,47
454,71	1475,56
454,92	1480,22
455,12	1422,52
455,33	1443,77
455,53	1530,75
455,74	1435,06
455,94	1467,47
456,15	1493,53
456,35	1482,58
456,55	1424,46
456,76	1444,64
456,96	1441,97
457,17	1393,80
457,37	1500,24
457,58	1458,00
457,78	1428,77
457,99	1450,99
458,19	1460,41
458,39	1425,34
458,60	1456,52
458,80	1424,36
459,01	1457,03
459,21	1408,44
459,42	1469,83
459,62	1494,86
459,82	1441,97
460,03	1436,24
460,23	1472,34
460,44	1444,64
460,64	1439,26
460,85	1460,76
461,05	1416,68
461,25	1406,70
461,46	1423,08
461,66	1435,37
461,87	1439,16
462,07	1480,32
462,27	1477,81
462,48	1469,67
462,68	1425,49
462,89	1413,05
463,09	1722,09
463,29	1478,33
463,50	1481,24
463,70	1402,65
463,91	1446,28
464,11	1469,37
464,31	1462,81
464,52	1496,66
464,72	1523,18
464,93	1410,33
465,13	1461,53
465,33	1457,03
465,54	1446,94
465,74	1519,64
465,95	1462,71
466,15	1462,25
466,35	1473,67
466,56	1499,93
466,76	1515,39
466,96	1493,28
467,17	1527,58
467,37	1509,30
467,58	1484,16
467,78	1470,19
467,98	1454,83
468,19	1427,90
468,39	1467,27
468,59	1489,08
468,80	1500,19
469,00	1422,31
469,21	1436,29
469,41	1458,15
469,61	1474,84
469,82	1453,49
470,02	1502,19
470,22	1428,41
470,43	1467,22
470,63	1443,51
470,83	1418,73
471,04	1409,98
471,24	1453,80
471,45	1500,91
471,65	1522,05
471,85	1470,65
472,06	1466,60
472,26	1494,56
472,46	1445,00
472,67	1538,54
472,87	1424,87
473,07	1464,96
473,28	1433,27
473,48	1475,41
473,68	1526,30
473,89	1443,41
474,09	1508,43
474,29	1441,31
474,50	1488,67
474,70	1445,15
474,90	1544,42
475,11	1455,18
475,31	1499,06
475,51	1477,25
475,72	1490,92
475,92	1467,01
476,12	1444,64
476,33	1547,65
476,53	1469,06
476,73	1426,41
476,93	1477,46
477,14	1459,02
477,34	1492,66
477,54	1481,71
477,75	1456,62
477,95	1445,30
478,15	1507,71
478,36	1486,88
478,56	1448,43
478,76	1474,13
478,97	1461,69
479,17	1457,69
479,37	1459,02
479,57	1478,17
479,78	1461,69
479,98	1470,60
480,18	1498,70
480,39	1471,21
480,59	1473,10
480,79	1490,15
480,99	1456,41
481,20	1454,77
481,40	1552,05
481,60	1459,38
481,81	1515,65
482,01	1489,18
482,21	1452,32
482,41	1468,55
482,62	1476,79
482,82	1450,99
483,02	1525,79
483,23	1408,70
483,43	1519,85
483,63	1480,58
483,83	1465,68
484,04	1553,95
484,24	1493,74
484,44	1462,97
484,64	1475,77
484,85	1478,38
485,05	1460,25
485,25	1460,82
485,45	1423,39
485,66	1485,24
485,86	1434,55
486,06	1465,63
486,26	1482,27
486,47	1466,19
486,67	1442,44
486,87	1474,44
487,07	1512,17
487,28	1452,16
487,48	1472,49
487,68	1455,95
487,88	1478,02
488,09	1481,60
488,29	1519,75
488,49	1507,61
488,69	1495,68
488,90	1480,63
489,10	1475,20
489,30	1447,50
489,50	1469,16
489,71	1522,36
489,91	1489,59
490,11	1495,94
490,31	1482,88
490,52	1473,62
490,72	1460,15
490,92	1537,56
491,12	1491,43
491,32	1464,60
491,53	1491,48
491,73	1481,04
491,93	1453,24
492,13	1490,20
492,33	1472,49
492,54	1502,03
492,74	1539,56
492,94	1505,15
493,14	1514,27
493,35	1492,82
493,55	1497,47
493,75	1508,64
493,95	1521,59
494,15	1473,41
494,36	1505,97
494,56	1493,28
494,76	1458,00
494,96	1476,33
495,16	1473,87
495,37	1534,08
495,57	1438,03
495,77	1491,18
495,97	1481,60
496,17	1472,64
496,37	1531,42
496,58	1564,80
496,78	1580,11
496,98	1620,10
497,18	1801,70
497,38	1880,24
497,59	1996,41
497,79	1922,58
497,99	1990,32
498,19	1909,22
498,39	1941,01
498,59	1785,73
498,80	1810,87
499,00	1709,64
499,20	1600,03
499,40	1535,52
499,60	1555,59
499,80	1538,59
500,01	1492,30
500,21	1496,76
500,41	1507,25
500,61	1521,49
500,81	1478,84
501,01	1500,80
501,22	1475,92
501,42	1443,10
501,62	1496,71
501,82	1515,86
502,02	1473,67
502,22	1460,51
502,42	1487,90
502,63	1548,37
502,83	1515,70
503,03	1474,08
503,23	1464,55
503,43	1455,24
503,63	1544,58
503,83	1527,12
504,04	1462,10
504,24	1480,17
504,44	1482,83
504,64	1467,22
504,84	1538,59
505,04	1481,14
505,24	1450,06
505,44	1471,21
505,65	1522,46
505,85	1551,49
506,05	1472,80
506,25	1471,16
506,45	1502,75
506,65	1457,08
506,85	1438,13
507,05	1510,68
507,26	1497,83
507,46	1533,88
507,66	1447,76
507,86	1443,15
508,06	1481,91
508,26	1435,01
508,46	1476,02
508,66	1466,50
508,86	1511,04
509,06	1487,29
509,27	1497,73
509,47	1486,21
509,67	1444,53
509,87	1483,45
510,07	1502,39
510,27	1488,72
510,47	1538,74
510,67	1514,22
510,87	1526,40
511,07	1473,31
511,28	1495,99
511,48	1524,76
511,68	1486,21
511,88	1433,22
512,08	1455,59
512,28	1452,52
512,48	1530,86
512,68	1456,05
512,88	1472,90
513,08	1534,29
513,28	1554,46
513,48	1536,95
513,68	1511,45
513,89	1535,16
514,09	1553,18
514,29	1514,32
514,49	1578,16
514,69	1609,04
514,89	1610,22
515,09	1606,84
515,29	1601,92
515,49	1561,88
515,69	1618,66
515,89	1578,11
516,09	1513,60
516,29	1466,91
516,49	1467,78
516,69	1497,32
516,89	1479,40
517,09	1479,40
517,29	1495,32
517,50	1426,62
517,70	1439,16
517,90	1471,26
518,10	1482,27
518,30	1474,69
518,50	1508,99
518,70	1502,59
518,90	1482,88
519,10	1504,23
519,30	1444,89
519,50	1456,46
519,70	1499,73
519,90	1515,34
520,10	1506,08
520,30	1477,97
520,50	1454,01
520,70	1467,73
520,90	1555,89
521,10	1472,95
521,30	1476,74
521,50	1540,99
521,70	1507,66
521,90	1512,37
522,10	1544,68
522,30	1492,76
522,50	1471,77
522,70	1506,28
522,90	1486,36
523,10	1522,51
523,30	1492,00
523,50	1523,48
523,70	1485,44
523,90	1446,53
524,10	1479,66
524,30	1468,96
524,50	1498,81
524,70	1522,61
524,90	1490,92
525,10	1497,88
525,30	1490,05
525,50	1483,91
525,70	1440,54
525,90	1490,41
526,10	1510,74
526,30	1474,38
526,50	1507,82
526,70	1486,93
526,90	1480,07
527,10	1471,88
527,30	1485,39
527,50	1519,23
527,70	1497,27
527,90	1485,95
528,10	1508,33
528,30	1491,84
528,50	1503,67
528,70	1485,60
528,90	1496,50
529,10	1498,50
529,30	1465,17
529,50	1520,87
529,70	1502,24
529,90	1505,00
530,10	1525,22
530,29	1545,60
530,49	1510,53
530,69	1492,87
530,89	1475,00
531,09	1491,48
531,29	1540,58
531,49	1467,83
531,69	1519,54
531,89	1495,58
532,09	1502,65
532,29	1530,34
532,49	1494,97
532,69	1483,24
532,89	1464,81
533,09	1497,32
533,29	1452,16
533,49	1473,16
533,68	1486,11
533,88	1500,14
534,08	1467,27
534,28	1476,33
534,48	1490,41
534,68	1436,04
534,88	1494,45
535,08	1492,51
535,28	1545,14
535,48	1492,46
535,68	1502,29
535,88	1535,82
536,08	1476,02
536,27	1485,39
536,47	1500,50
536,67	1521,85
536,87	1475,61
537,07	1491,79
537,27	1534,75
537,47	1478,68
537,67	1448,68
537,87	1461,69
538,07	1477,05
538,27	1523,79
538,46	1549,34
538,66	1480,89
538,86	1462,25
539,06	1500,03
539,26	1481,14
539,46	1487,95
539,66	1493,74
539,86	1481,19
540,06	1490,92
540,25	1533,21
540,45	1458,41
540,65	1501,42
540,85	1478,22
541,05	1515,65
541,25	1504,28
541,45	1496,71
541,65	1544,78
541,85	1510,27
542,04	1510,74
542,24	1543,50
542,44	1531,22
542,64	1532,65
542,84	1485,75
543,04	1448,32
543,24	1526,97
543,43	1475,97
543,63	1560,81
543,83	1511,35
544,03	1494,91
544,23	1512,07
544,43	1491,54
544,63	1513,14
544,82	1507,87
545,02	1493,79
545,22	1526,40
545,42	1514,22
545,62	1516,26
545,82	1490,72
546,02	1502,44
546,21	1514,52
546,41	1516,98
546,61	1466,65
546,81	1484,42
547,01	1562,09
547,21	1517,44
547,40	1503,47
547,60	1534,80
547,80	1501,42
548,00	1460,76
548,20	1492,15
548,40	1517,44
548,59	1465,88
548,79	1547,55
548,99	1544,99
549,19	1514,22
549,39	1522,72
549,59	1522,15
549,78	1545,70
549,98	1505,31
550,18	1507,10
550,38	1550,52
550,58	1521,59
550,77	1527,38
550,97	1499,78
551,17	1541,66
551,37	1549,49
551,57	1512,58
551,76	1538,79
551,96	1502,34
552,16	1548,78
552,36	1534,54
552,56	1552,05
552,75	1510,58
552,95	1493,84
553,15	1559,94
553,35	1607,09
553,55	1501,37
553,74	1535,46
553,94	1487,18
554,14	1492,15
554,34	1539,20
554,54	1553,18
554,73	1453,09
554,93	1521,38
555,13	1535,46
555,33	1515,75
555,53	1469,52
555,72	1554,82
555,92	1628,19
556,12	1554,31
556,32	1574,48
556,51	1546,73
556,71	1538,49
556,91	1590,15
557,11	1562,80
557,30	1556,97
557,50	1595,27
557,70	1545,70
557,90	1549,70
558,10	1549,75
558,29	1562,96
558,49	1576,88
558,69	1582,98
558,89	1585,44
559,08	1605,61
559,28	1545,04
559,48	1546,73
559,68	1608,99
559,87	1626,29
560,07	1583,08
560,27	1596,03
560,47	1589,99
560,66	1580,83
560,86	1608,42
561,06	1610,78
561,25	1560,19
561,45	1594,60
561,65	1602,07
561,85	1592,71
562,04	1622,76
562,24	1618,41
562,44	1604,58
562,64	1679,08
562,83	1708,36
563,03	1675,70
563,23	1615,23
563,42	1645,54
563,62	1596,39
563,82	1628,19
564,02	1655,83
564,21	1684,56
564,41	1656,24
564,61	1703,76
564,80	1690,04
565,00	1748,40
565,20	1708,01
565,40	1799,55
565,59	1688,81
565,79	1724,13
565,99	1757,62
566,18	1770,72
566,38	1764,79
566,58	1756,34
566,78	1853,72
566,97	2073,93
567,17	2360,95
567,37	2761,79
567,56	3490,05
567,76	4161,93
567,96	4843,55
568,15	5490,25
568,35	5978,84
568,55	6149,54
568,74	5899,58
568,94	5634,88
569,14	5157,45
569,33	4653,04
569,53	4188,76
569,73	3715,22
569,92	3258,68
570,12	2804,23
570,32	2479,37
570,52	2253,43
570,71	2110,38
570,91	2061,79
571,11	1960,88
571,30	1942,14
571,50	1908,14
571,70	1953,86
571,89	1948,85
572,09	1928,88
572,28	1872,46
572,48	1845,89
572,68	1862,68
572,87	1895,19
573,07	1917,67
573,27	1964,67
573,46	1967,07
573,66	1937,43
573,86	1934,66
574,05	1947,16
574,25	1918,28
574,45	1941,63
574,64	2002,91
574,84	2082,84
575,04	2002,40
575,23	2041,06
575,43	2012,74
575,62	2033,58
575,82	2064,25
576,02	1997,03
576,21	2039,52
576,41	2031,99
576,61	2063,28
576,80	2065,48
577,00	2045,92
577,19	2062,97
577,39	2104,13
577,59	2152,11
577,78	2146,17
577,98	2162,50
578,18	2155,59
578,37	2163,93
578,57	2206,33
578,76	2221,28
578,96	2199,11
579,16	2222,71
579,35	2249,49
579,55	2194,96
579,74	2301,00
579,94	2209,04
580,14	2342,42
580,33	2300,79
580,53	2309,65
580,72	2350,45
580,92	2359,77
581,12	2344,77
581,31	2412,97
581,51	2462,22
581,70	2449,73
581,90	2481,52
582,10	2544,91
582,29	2579,26
582,49	2565,44
582,68	2613,62
582,88	2656,98
583,07	2837,41
583,27	2786,72
583,47	2917,02
583,66	2964,03
583,86	3062,53
584,05	3172,25
584,25	3324,37
584,44	3545,44
584,64	3700,68
584,84	3721,26
585,03	3892,52
585,23	3957,14
585,42	4080,27
585,62	4151,34
585,81	4314,20
586,01	4516,23
586,20	4710,38
586,40	4988,75
586,60	5347,09
586,79	5797,59
586,99	6532,51
587,18	8658,15
587,38	19222,08
587,57	56602,07
587,77	65535,00
587,96	65535,00
588,16	65535,00
588,35	65535,00
588,55	65535,00
588,75	65535,00
588,94	65535,00
589,14	65535,00
589,33	65535,00
589,53	65535,00
589,72	65535,00
589,92	65535,00
590,11	65535,00
590,31	65535,00
590,50	65535,00
590,70	65535,00
590,89	65535,00
591,09	65535,00
591,28	65535,00
591,48	65535,00
591,67	65535,00
591,87	65535,00
592,06	65535,00
592,26	65535,00
592,45	65535,00
592,65	65535,00
592,84	65535,00
593,04	65535,00
593,23	65535,00
593,43	65535,00
593,62	65535,00
593,82	65535,00
594,01	65535,00
594,21	65535,00
594,40	65535,00
594,60	65535,00
594,79	65535,00
594,99	65535,00
595,18	65535,00
595,38	65535,00
595,57	65535,00
595,77	65535,00
595,96	65535,00
596,16	65535,00
596,35	65535,00
596,55	65535,00
596,74	65535,00
596,94	65535,00
597,13	65535,00
597,33	65535,00
597,52	65535,00
597,72	65535,00
597,91	65535,00
598,11	65535,00
598,30	65535,00
598,50	65535,00
598,69	65535,00
598,88	65535,00
599,08	65535,00
599,27	65535,00
599,47	65535,00
599,66	65535,00
599,86	65535,00
600,05	65535,00
600,25	65535,00
600,44	65535,00
600,64	65535,00
600,83	65535,00
601,02	65535,00
601,22	65535,00
601,41	65535,00
601,61	65535,00
601,80	65535,00
602,00	65535,00
602,19	65535,00
602,38	65535,00
602,58	65535,00
602,77	65535,00
602,97	65535,00
603,16	65535,00
603,36	65535,00
603,55	65535,00
603,74	65535,00
603,94	65535,00
604,13	65535,00
604,33	65535,00
604,52	65535,00
604,72	65535,00
604,91	65535,00
605,10	65535,00
605,30	49890,82
605,49	52871,64
605,69	2343,80
605,88	2268,43
606,07	2250,51
606,27	2260,04
606,46	2200,85
606,66	2164,81
606,85	2122,26
607,04	2124,67
607,24	2127,12
607,43	2169,31
607,63	2102,09
607,82	2109,61
608,01	2115,04
608,21	2081,91
608,40	2107,87
608,60	2063,94
608,79	2057,80
608,98	2054,27
609,18	2091,74
609,37	2115,14
609,57	2073,06
609,76	2098,09
609,95	2024,21
610,15	2045,00
610,34	2044,79
610,53	1971,68
610,73	1989,40
610,92	1991,80
611,11	1977,37
611,31	1987,45
611,50	1941,27
611,70	2003,58
611,89	1960,16
612,08	1957,86
612,28	1921,40
612,47	1956,73
612,66	1908,81
612,86	1994,00
613,05	1939,27
613,24	1947,16
613,44	1925,45
613,63	1898,26
613,82	1943,37
614,02	1904,00
614,21	1923,45
614,41	1941,32
614,60	2071,73
614,79	2087,14
614,99	2292,60
615,18	2325,83
615,37	2480,91
615,57	2550,18
615,76	2601,84
615,95	2588,89
616,15	2561,55
616,34	2585,87
616,53	2476,10
616,73	2338,52
616,92	2245,19
617,11	2167,77
617,30	2065,94
617,50	1986,07
617,69	1972,14
617,88	1908,55
618,08	1867,75
618,27	1779,74
618,46	1766,58
618,66	1727,72
618,85	1696,28
619,04	1735,14
619,24	1794,48
619,43	1746,71
619,62	1683,94
619,82	1685,43
620,01	1662,03
620,20	1641,45
620,39	1665,41
620,59	1696,69
620,78	1696,79
620,97	1719,63
621,17	1694,59
621,36	1663,05
621,55	1652,51
621,74	1649,02
621,94	1590,04
622,13	1728,08
622,32	1655,42
622,52	1616,15
622,71	1652,56
622,90	1633,36
623,09	1636,69
623,29	1612,37
623,48	1629,57
623,67	1590,30
623,86	1641,86
624,06	1571,76
624,25	1627,78
624,44	1668,79
624,64	1631,87
624,83	1580,32
625,02	1597,98
625,21	1637,25
625,41	1569,05
625,60	1591,83
625,79	1531,32
625,98	1543,96
626,18	1569,61
626,37	1591,58
626,56	1567,82
626,75	1554,25
626,95	1577,96
627,14	1538,84
627,33	1564,70
627,52	1531,83
627,72	1559,94
627,91	1631,51
628,10	1562,29
628,29	1567,41
628,49	1572,43
628,68	1609,45
628,87	1573,15
629,06	1634,02
629,25	1550,52
629,45	1551,85
629,64	1630,44
629,83	1569,00
630,02	1527,53
630,22	1575,76
630,41	1529,78
630,60	1570,33
630,79	1549,39
630,98	1546,98
631,18	1515,34
631,37	1487,85
631,56	1532,65
631,75	1590,30
631,94	1547,04
632,14	1514,47
632,33	1500,03
632,52	1485,85
632,71	1907,84
632,90	1551,34
633,10	1533,83
633,29	1526,71
633,48	1528,09
633,67	1529,32
633,86	1572,58
634,06	1511,50
634,25	1555,43
634,44	1591,73
634,63	1546,93
634,82	1507,66
635,02	1530,19
635,21	1505,31
635,40	1513,14
635,59	1501,98
635,78	1560,91
635,97	1524,15
636,17	1533,21
636,36	1558,86
636,55	1546,83
636,74	1549,39
636,93	1533,01
637,12	1557,43
637,32	1542,33
637,51	1505,36
637,70	1565,77
637,89	1513,50
638,08	1503,06
638,27	1567,36
638,47	1539,25
638,66	1539,25
638,85	1494,97
639,04	1506,90
639,23	1551,75
639,42	1538,84
639,62	1572,79
639,81	1553,23
640,00	1556,51
640,19	1532,34
640,38	1531,22
640,57	1534,90
640,76	1556,61
640,95	1498,81
641,15	1487,44
641,34	1567,41
641,53	1521,59
641,72	1584,00
641,91	1572,94
642,10	1482,42
642,29	1562,34
642,49	1494,86
642,68	1495,53
642,87	1519,80
643,06	1528,19
643,25	1528,19
643,44	1495,07
643,63	1512,12
643,82	1502,03
644,01	1492,46
644,21	1507,30
644,40	1557,79
644,59	1482,47
644,78	1505,10
644,97	1625,68
645,16	1526,10
645,35	1504,08
645,54	1507,25
645,73	1523,38
645,92	1538,02
646,12	1505,15
646,31	1489,13
646,50	1499,27
646,69	1511,81
646,88	1475,72
647,07	1524,46
647,26	1499,93
647,45	1496,91
647,64	1528,09
647,83	1492,15
648,02	1528,30
648,22	1517,29
648,41	1475,36
648,60	1492,92
648,79	1515,14
648,98	1539,77
649,17	1503,98
649,36	1438,39
649,55	1498,04
649,74	1539,46
649,93	1478,07
650,12	1522,51
650,31	1543,61
650,50	1513,19
650,69	1533,98
650,88	1554,77
651,08	1489,44
651,27	1547,34
651,46	1528,19
651,65	1470,49
651,84	1462,45
652,03	1482,83
652,22	1469,21
652,41	1487,08
652,60	1578,52
652,79	1540,94
652,98	1506,03
653,17	1498,96
653,36	1504,39
653,55	1507,51
653,74	1529,78
653,93	1483,24
654,12	1484,67
654,31	1467,42
654,50	1505,36
654,69	1540,33
654,88	1520,21
655,07	1458,31
655,26	1468,04
655,45	1454,93
655,64	1447,71
655,83	1468,65
656,02	1514,88
656,21	1451,45
656,40	1443,72
656,59	1494,51
656,78	1468,39
656,97	1472,90
657,17	1511,61
657,36	1445,71
657,55	1565,31
657,74	1502,44
657,93	1498,65
658,12	1498,09
658,31	1488,11
658,50	1463,07
658,69	1448,07
658,87	1508,18
659,06	1487,23
659,25	1491,07
659,44	1459,89
659,63	1521,74
659,82	1494,76
660,01	1503,52
660,20	1476,07
660,39	1515,91
660,58	1468,29
660,77	1470,95
660,96	1494,56
661,15	1483,91
661,34	1483,39
661,53	1459,69
661,72	1507,71
661,91	1458,87
662,10	1475,51
662,29	1439,98
662,48	1462,76
662,67	1448,43
662,86	1464,40
663,05	1465,07
663,24	1527,22
663,43	1466,96
663,62	1531,11
663,81	1456,77
664,00	1535,21
664,19	1425,95
664,38	1487,13
664,57	1441,92
664,76	1490,46
664,94	1439,21
665,13	1458,36
665,32	1437,93
665,51	1454,72
665,70	1428,15
665,89	1491,28
666,08	1482,73
666,27	1438,29
666,46	1481,14
666,65	1487,13
666,84	1408,75
667,03	1460,30
667,22	1446,33
667,41	1513,96
667,60	1465,78
667,78	1490,51
667,97	1487,13
668,16	1517,70
668,35	1469,26
668,54	1477,56
668,73	1460,46
668,92	1479,86
669,11	1451,81
669,30	1471,21
669,49	1457,03
669,68	1523,59
669,86	1455,29
670,05	1454,47
670,24	1433,12
670,43	1463,68
670,62	1493,43
670,81	1445,05
671,00	1458,82
671,19	1512,73
671,38	1456,67
671,57	1463,48
671,75	1440,75
671,94	1488,77
672,13	1479,56
672,32	1423,29
672,51	1444,53
672,70	1489,08
672,89	1453,85
673,08	1430,20
673,26	1441,46
673,45	1449,81
673,64	1450,27
673,83	1452,42
674,02	1436,50
674,21	1543,96
674,40	1471,57
674,59	1499,06
674,77	1495,99
674,96	1526,35
675,15	1512,32
675,34	1484,62
675,53	1537,36
675,72	1481,50
675,91	1502,03
676,09	1517,49
676,28	1579,55
676,47	1470,75
676,66	1428,36
676,85	1508,69
677,04	1472,08
677,22	1491,28
677,41	1455,90
677,60	1491,28
677,79	1446,89
677,98	1454,57
678,17	1416,38
678,36	1457,85
678,54	1416,53
678,73	1482,78
678,92	1402,81
679,11	1494,86
679,30	1429,94
679,48	1446,22
679,67	1452,01
679,86	1436,50
680,05	1501,78
680,24	1425,69
680,43	1446,48
680,61	1418,17
680,80	1405,57
680,99	1438,39
681,18	1428,71
681,37	1482,11
681,55	1522,46
681,74	1497,22
681,93	1440,59
682,12	1405,78
682,31	1425,13
682,49	1446,84
682,68	1493,17
682,87	1437,73
683,06	1428,20
683,25	1469,78
683,43	1473,87
683,62	1437,67
683,81	1498,24
684,00	1514,83
684,19	1456,46
684,37	1435,01
684,56	1428,61
684,75	1518,98
684,94	1440,44
685,12	1505,31
685,31	1451,60
685,50	1461,33
685,69	1439,16
685,88	1447,25
686,06	1441,36
686,25	1450,42
686,44	1453,34
686,63	1446,12
686,81	1492,15
687,00	1457,39
687,19	1457,90
687,38	1487,44
687,56	1427,79
687,75	1481,40
687,94	1434,55
688,13	1436,96
688,31	1444,07
688,50	1428,77
688,69	1452,93
688,88	1491,13
689,06	1485,08
689,25	1455,49
689,44	1411,46
689,63	1459,13
689,81	1408,44
690,00	1411,20
690,19	1447,30
690,38	1459,43
690,56	1418,63
690,75	1507,61
690,94	1458,26
691,13	1439,26
691,31	1460,30
691,50	1432,81
691,69	1454,57
691,87	1413,00
692,06	1463,07
692,25	1451,75
692,44	1425,18
692,62	1436,91
692,81	1557,33
693,00	1465,94
693,18	1432,35
693,37	1496,55
693,56	1422,37
693,75	1425,03
693,93	1485,90
694,12	1508,12
694,31	1460,56
694,49	1426,21
694,68	1435,22
694,87	1470,54
695,05	1498,81
695,24	1591,99
695,43	1719,06
695,62	1918,54
695,80	2107,00
695,99	2393,82
696,18	2564,57
696,36	2806,69
696,55	2807,10
696,74	2711,51
696,92	2747,15
697,11	2611,01
697,30	2508,61
697,48	2384,19
697,67	2304,12
697,86	2244,68
698,04	2133,06
698,23	2043,16
698,42	1937,33
698,60	1767,60
698,79	1673,75
698,98	1614,41
699,16	1512,12
699,35	1492,56
699,54	1508,02
699,72	1453,85
699,91	1545,45
700,10	1456,57
700,28	1455,90
700,47	1553,44
700,66	1434,76
700,84	1450,12
701,03	1401,32
701,21	1467,98
701,40	1426,72
701,59	1479,09
701,77	1433,53
701,96	1444,43
702,15	1466,50
702,33	1451,45
702,52	1429,48
702,71	1505,21
702,89	1439,72
703,08	1465,68
703,26	1479,81
703,45	1504,03
703,64	1475,46
703,82	1499,01
704,01	1443,15
704,20	1471,57
704,38	1465,83
704,57	1427,54
704,75	1414,38
704,94	1432,96
705,13	1454,98
705,31	1527,12
705,50	1555,38
705,68	1690,29
705,87	1822,74
706,06	1922,17
706,24	2025,24
706,43	2130,76
706,61	2268,07
706,80	2238,43
706,99	2235,26
707,17	2239,04
707,36	2116,63
707,54	2042,59
707,73	1997,13
707,92	1956,99
708,10	1884,03
708,29	1859,30
708,47	1787,98
708,66	1734,94
708,84	1602,07
709,03	1570,54
709,22	1530,60
709,40	1510,58
709,59	1495,73
709,77	1523,89
709,96	1501,93
710,14	1423,95
710,33	1487,75
710,52	1468,91
710,70	1484,62
710,89	1434,96
711,07	1454,06
711,26	1468,50
711,44	1509,71
711,63	1455,13
711,81	1462,15
712,00	1403,58
712,19	1458,51
712,37	1496,30
712,56	1457,28
712,74	1430,30
712,93	1459,74
713,11	1442,59
713,30	1452,42
713,48	1478,28
713,67	1442,59
713,85	1467,27
714,04	1505,72
714,22	1550,31
714,41	1542,27
714,59	1525,58
714,78	1545,65
714,97	1536,08
715,15	1512,73
715,34	1530,96
715,52	1467,88
715,71	1505,62
715,89	1470,24
716,08	1491,23
716,26	1437,32
716,45	1458,82
716,63	1454,47
716,82	1479,04
717,00	1401,43
717,19	1472,44
717,37	1436,60
717,56	1443,41
717,74	1421,44
717,93	1456,62
718,11	1460,41
718,30	1376,29
718,48	1443,25
718,67	1492,30
718,85	1426,97
719,04	1429,48
719,22	1408,95
719,41	1473,92
719,59	1505,51
719,78	1435,06
719,96	1411,10
720,15	1451,09
720,33	1447,86
720,52	1439,98
720,70	1407,67
720,88	1474,18
721,07	1409,41
721,25	1426,05
721,44	1421,50
721,62	1444,28
721,81	1378,95
721,99	1378,18
722,18	1425,95
722,36	1435,68
722,55	1416,27
722,73	1410,90
722,92	1460,51
723,10	1424,11
723,28	1452,57
723,47	1459,13
723,65	1473,97
723,84	1447,50
724,02	1394,10
724,21	1450,93
724,39	1405,42
724,58	1418,78
724,76	1481,45
724,94	1414,58
725,13	1456,11
725,31	1437,52
725,50	1467,37
725,68	1447,30
725,87	1445,92
726,05	1479,86
726,23	1486,26
726,42	1543,04
726,60	1584,51
726,79	1615,95
726,97	1704,47
727,16	1779,07
727,34	1734,83
727,52	1711,28
727,71	1740,82
727,89	1640,93
728,08	1623,78
728,26	1641,70
728,44	1610,93
728,63	1655,73
728,81	1584,97
729,00	1553,95
729,18	1539,10
729,36	1516,06
729,55	1513,81
729,73	1511,50
729,92	1471,52
730,10	1439,01
730,28	1417,40
730,47	1419,04
730,65	1436,85
730,84	1491,43
731,02	1407,62
731,20	1496,25
731,39	1438,80
731,57	1473,62
731,75	1465,58
731,94	1426,72
732,12	1491,74
732,31	1429,89
732,49	1407,01
732,67	1452,06
732,86	1389,70
733,04	1450,42
733,22	1400,45
733,41	1408,70
733,59	1426,87
733,78	1445,25
733,96	1470,95
734,14	1387,04
734,33	1395,90
734,51	1443,66
734,69	1461,12
734,88	1440,23
735,06	1425,54
735,24	1443,77
735,43	1488,72
735,61	1422,26
735,79	1468,14
735,98	1448,99
736,16	1507,10
736,34	1456,98
736,53	1465,01
736,71	1476,94
736,89	1505,67
737,08	1609,19
737,26	1703,81
737,44	1859,15
737,63	2051,19
737,81	2214,21
737,99	2488,44
738,18	2678,28
738,36	2833,57
738,54	2799,57
738,73	2733,73
738,91	2655,14
739,09	2435,85
739,28	2312,21
739,46	2202,90
739,64	2137,41
739,82	2127,43
740,01	1999,69
740,19	2064,25
740,37	1909,99
740,56	1796,27
740,74	1693,47
740,92	1641,75
741,11	1526,45
741,29	1514,58
741,47	1563,42
741,65	1458,51
741,84	1463,17
742,02	1522,10
742,20	1454,72
742,39	1437,83
742,57	1453,24
742,75	1428,51
742,93	1440,90
743,12	1450,58
743,30	1437,42
743,48	1436,24
743,67	1465,73
743,85	1407,72
744,03	1504,54
744,21	1430,81
744,40	1426,87
744,58	1439,26
744,76	1446,99
744,94	1441,57
745,13	1430,61
745,31	1422,06
745,49	1430,30
745,67	1390,31
745,86	1465,17
746,04	1430,92
746,22	1444,94
746,40	1407,67
746,59	1418,22
746,77	1454,57
746,95	1510,33
747,13	1446,94
747,32	1458,92
747,50	1452,11
747,68	1432,91
747,86	1431,53
748,05	1500,75
748,23	1442,28
748,41	1474,64
748,59	1418,99
748,77	1439,88
748,96	1476,64
749,14	1526,61
749,32	1761,30
749,50	1834,52
749,69	1964,92
749,87	2132,81
750,05	2336,99
750,23	2505,84
750,41	2657,75
750,60	2858,76
750,78	2832,65
750,96	2961,16
751,14	2988,09
751,32	3020,19
751,51	2979,03
751,69	2895,16
751,87	2755,39
752,05	2736,80
752,23	2546,55
752,42	2387,73
752,60	2298,13
752,78	2158,71
752,96	2060,51
753,14	2009,11
753,33	1924,89
753,51	1860,43
753,69	1778,56
753,87	1715,79
754,05	1659,06
754,23	1575,40
754,42	1509,46
754,60	1499,52
754,78	1540,74
754,96	1448,22
755,14	1447,97
755,32	1495,79
755,51	1414,74
755,69	1458,15
755,87	1422,78
756,05	1411,97
756,23	1450,12
756,41	1459,79
756,60	1451,34
756,78	1458,20
756,96	1421,19
757,14	1449,65
757,32	1422,01
757,50	1479,30
757,68	1443,31
757,87	1419,86
758,05	1438,08
758,23	1440,23
758,41	1493,38
758,59	1496,45
758,77	1493,63
758,95	1483,09
759,14	1458,05
759,32	1494,71
759,50	1434,19
759,68	1432,61
759,86	1425,28
760,04	1437,21
760,22	1436,45
760,40	1574,73
760,59	1451,81
760,77	1480,58
760,95	1436,24
761,13	1416,78
761,31	1489,08
761,49	1472,69
761,67	1505,05
761,85	1478,38
762,03	1598,80
762,22	1972,09
762,40	2437,85
762,58	3134,88
762,76	3928,36
762,94	4663,79
763,12	5595,67
763,30	6439,53
763,48	6793,98
763,66	6764,49
763,84	6410,30
764,02	5898,61
764,21	5247,61
764,39	4778,47
764,57	4361,00
764,75	4160,19
764,93	4063,53
765,11	3962,05
765,29	3985,14
765,47	3928,67
765,65	3782,55
765,83	3566,49
766,01	3281,36
766,19	3043,59
766,37	2879,34
766,56	2629,90
766,74	2435,70
766,92	2237,05
767,10	2076,85
767,28	1973,78
767,46	1900,11
767,64	1830,78
767,82	1824,89
768,00	1768,42
768,18	1752,70
768,36	1781,78
768,54	1816,19
768,72	1794,28
768,90	1712,87
769,08	1727,82
769,26	1789,00
769,44	1810,15
769,62	1853,51
769,80	1894,17
769,98	1866,47
770,16	1792,59
770,34	1768,11
770,52	1705,91
770,71	1687,63
770,89	1674,01
771,07	1834,06
771,25	1902,00
771,43	2183,70
771,61	2477,07
771,79	2690,77
771,97	2986,30
772,15	3225,60
772,33	3368,45
772,51	3419,65
772,69	3233,95
772,87	3043,59
773,05	2813,96
773,23	2591,35
773,41	2442,00
773,59	2394,95
773,77	2288,86
773,95	2285,53
774,13	2254,81
774,31	2270,38
774,49	2179,60
774,67	2094,76
774,85	1970,81
775,03	1849,73
775,21	1754,24
775,39	1624,40
775,57	1564,34
775,75	1579,29
775,93	1489,64
776,10	1466,60
776,28	1510,53
776,46	1434,04
776,64	1457,08
776,82	1431,02
777,00	2030,61
777,18	1422,21
777,36	1471,77
777,54	1433,07
777,72	1411,05
777,90	1458,97
778,08	1414,53
778,26	1415,66
778,44	1420,06
778,62	1430,35
778,80	1515,09
778,98	1458,15
779,16	1424,72
779,34	1506,95
779,52	1420,42
779,70	1491,13
779,88	1403,98
780,05	1416,17
780,23	1426,41
780,41	1440,44
780,59	1443,00
780,77	1457,03
780,95	1443,41
781,13	1476,74
781,31	1410,59
781,49	1473,26
781,67	1448,73
781,85	1425,08
782,03	1453,55
782,21	1441,31
782,39	1446,79
782,56	1476,38
782,74	1462,86
782,92	1424,16
783,10	1521,69
783,28	1406,19
783,46	1397,99
783,64	1477,97
783,82	1434,19
784,00	1463,84
784,18	1427,33
784,35	1411,92
784,53	1422,47
784,71	1402,14
784,89	1436,65
785,07	1437,06
785,25	1458,26
785,43	1469,72
785,61	1403,27
785,79	1436,60
785,96	1487,70
786,14	1415,50
786,32	1460,66
786,50	1445,46
786,68	1381,00
786,86	1412,02
787,04	1444,28
787,22	1410,49
787,39	1424,67
787,57	1404,45
787,75	1438,75
787,93	1446,22
788,11	1399,53
788,29	1449,81
788,47	1446,53
788,65	1419,14
788,82	1443,20
789,00	1427,64
789,18	1452,98
789,36	1433,78
789,54	1406,90
789,72	1409,16
789,89	1430,86
790,07	1474,38
790,25	1474,74
790,43	1437,42
790,61	1464,60
790,79	1434,50
790,96	1430,92
791,14	1491,28
791,32	1393,08
791,50	1452,37
791,68	1477,81
791,86	1435,47
792,03	1437,67
792,21	1420,16
792,39	1421,80
792,57	1403,93
792,75	1392,21
792,93	1445,35
793,10	1438,24
793,28	1443,05
793,46	1453,29
793,64	1586,00
793,82	1762,23
793,99	1854,13
794,17	1900,05
794,35	2062,82
794,53	2161,38
794,71	2189,33
794,88	2247,54
795,06	2240,17
795,24	2126,56
795,42	2080,84
795,60	2020,27
795,77	1895,40
795,95	1899,29
796,13	1884,49
796,31	1880,75
796,49	1931,34
796,66	1849,37
796,84	1811,48
797,02	1868,05
797,20	1822,44
797,37	1777,48
797,55	1663,21
797,73	1614,31
797,91	1538,33
798,08	1568,39
798,26	1532,60
798,44	1455,64
798,62	1447,30
798,80	1450,99
798,97	1433,17
799,15	1454,83
799,33	1558,91
799,51	1598,95
799,68	1620,25
799,86	1700,22
800,04	1758,69
800,22	1881,88
800,39	2002,56
800,57	2222,71
800,75	2293,16
800,93	2381,94
801,10	2439,13
801,28	2523,30
801,46	2452,75
801,63	2461,50
801,81	2426,69
801,99	2306,73
802,17	2231,67
802,34	2227,93
802,52	2106,54
802,70	2148,78
802,88	2113,25
803,05	2117,19
803,23	2010,90
803,41	1964,72
803,58	1953,15
803,76	1941,63
803,94	1907,02
804,12	1819,98
804,29	1714,20
804,47	1706,37
804,65	1610,22
804,82	1571,41
805,00	1511,66
805,18	1492,10
805,35	1466,24
805,53	1490,61
805,71	1473,16
805,89	1484,98
806,06	1474,95
806,24	1406,49
806,42	1442,54
806,59	1438,03
806,77	1492,10
806,95	1448,58
807,12	1463,79
807,30	1480,07
807,48	1406,29
807,65	1415,56
807,83	1458,82
808,01	1462,71
808,18	1459,54
808,36	1480,37
808,54	1416,63
808,71	1457,08
808,89	1499,27
809,07	1572,64
809,24	1674,73
809,42	1827,50
809,60	1871,43
809,77	2036,04
809,95	2181,50
810,13	2384,55
810,30	2703,88
810,48	3125,20
810,66	3460,61
810,83	3801,64
811,01	4073,10
811,18	4317,27
811,36	4549,31
811,54	4727,48
811,71	4787,18
811,89	4680,43
812,07	4418,34
812,24	4299,30
812,42	3988,47
812,59	3857,91
812,77	3753,52
812,95	3699,71
813,12	3582,56
813,30	3478,83
813,48	3380,07
813,65	3297,23
813,83	3226,06
814,00	3129,81
814,18	2999,30
814,36	2722,67
814,53	2496,63
814,71	2251,38
814,88	2080,74
815,06	1846,96
815,24	1798,27
815,41	1636,63
815,59	1606,89
815,76	1544,17
815,94	1594,45
816,12	1506,69
816,29	1554,15
816,47	1520,72
816,64	1590,35
816,82	1556,51
817,00	1795,61
817,17	2021,35
817,35	2486,90
817,52	2807,20
817,70	3234,97
817,87	3644,97
818,05	4118,16
818,23	4690,16
818,40	5470,23
818,58	6041,92
818,75	6628,97
818,93	7016,08
819,10	7532,58
819,28	7835,73
819,46	8143,90
819,63	8181,38
819,81	8149,17
819,98	7744,19
820,16	7466,18
820,33	7058,68
820,51	6869,04
820,68	6621,80
820,86	6510,60
821,03	6351,88
821,21	6002,49
821,39	5786,02
821,56	5437,56
821,74	5091,61
821,91	4888,96
822,09	4616,74
822,26	4257,68
822,44	3786,44
822,61	3331,17
822,79	2923,42
822,96	2514,50
823,14	2195,06
823,31	1955,25
823,49	1860,63
823,66	1732,79
823,84	1634,59
824,01	1580,37
824,19	1519,29
824,36	1571,51
824,54	1550,31
824,71	1549,34
824,89	1519,34
825,06	1582,93
825,24	1546,88
825,41	1598,64
825,59	1661,93
825,76	1730,28
825,94	1751,12
826,11	1866,26
826,29	1854,03
826,46	1904,35
826,64	1947,57
826,81	1922,74
826,99	1884,80
827,16	1828,99
827,34	1799,35
827,51	1785,27
827,69	1875,48
827,86	1799,70
828,04	1788,44
828,21	1777,38
828,39	1790,74
828,56	1769,34
828,74	1780,15
828,91	1747,43
829,09	1842,71
829,26	1704,01
829,43	1714,82
829,61	1643,65
829,78	1586,61
829,96	1576,83
830,13	1510,38
830,31	1525,17
830,48	1500,65
830,66	1457,33
830,83	1441,97
831,01	1442,74
831,18	1452,57
831,35	1447,71
831,53	1477,92
831,70	1490,20
831,88	1538,95
832,05	1452,06
832,23	1439,26
832,40	1458,92
832,57	1484,57
832,75	1420,27
832,92	1474,95
833,10	1499,88
833,27	1451,40
833,45	1441,05
833,62	1445,30
833,79	1463,22
833,97	1424,82
834,14	1456,82
834,32	1469,01
834,49	1412,33
834,66	1419,19
834,84	1423,59
835,01	1478,22
835,19	1408,03
835,36	1403,93
835,53	1505,46
835,71	1461,64
835,88	1459,43
836,06	1464,50
836,23	1504,34
836,40	1404,60
836,58	1424,62
836,75	1439,47
836,93	1419,86
837,10	1449,55
837,27	1435,57
837,45	1432,71
837,62	1399,74
837,79	1414,02
837,97	1469,78
838,14	1420,27
838,32	1421,19
838,49	1426,31
838,66	1451,70
838,84	1472,03
839,01	1481,04
839,18	1456,00
839,36	1446,84
839,53	1466,96
839,70	1554,00
839,88	1596,55
840,05	1672,32
840,23	1708,36
840,40	1749,37
840,57	1844,35
840,75	1890,07
840,92	1985,10
841,09	1985,25
841,27	2059,13
841,44	2083,65
841,61	2182,78
841,79	2212,42
841,96	2255,48
842,13	2276,98
842,31	2379,48
842,48	2413,12
842,65	2432,63
842,83	2480,65
843,00	2480,14
843,17	2448,24
843,35	2463,66
843,52	2380,15
843,69	2393,77
843,86	2325,62
844,04	2270,07
844,21	2195,42
844,38	2182,21
844,56	2112,68
844,73	2075,46
844,90	2029,23
845,08	2002,25
845,25	1967,53
845,42	1962,88
845,60	1887,41
845,77	1793,71
845,94	1702,89
846,11	1661,41
846,29	1661,01
846,46	1552,82
846,63	1509,20
846,81	1532,80
846,98	1462,51
847,15	1459,43
847,32	1466,45
847,50	1426,97
847,67	1446,22
847,84	1454,52
848,01	1463,68
848,19	1458,92
848,36	1441,26
848,53	1405,93
848,71	1482,99
848,88	1437,06
849,05	1388,68
849,22	1433,83
849,40	1407,21
849,57	1470,85
849,74	1443,82
849,91	1442,18
850,09	1412,23
850,26	1430,30
850,43	1424,52
850,60	1431,73
850,78	1436,60
850,95	1443,87
851,12	1450,06
851,29	1504,95
851,47	1535,57
851,64	1511,50
851,81	1540,43
851,98	1545,24
852,15	1619,99
852,33	1549,95
852,50	1575,30
852,67	1611,39
852,84	1574,99
853,02	1631,31
853,19	1631,41
853,36	1583,49
853,53	1547,19
853,70	1659,98
853,88	1614,46
854,05	1622,50
854,22	1559,73
854,39	1594,39
854,56	1601,00
854,74	1531,88
854,91	1591,73
855,08	1506,59
855,25	1577,96
855,42	1516,16
855,60	1528,55
855,77	1545,55
855,94	1551,18
856,11	1463,99
856,28	1455,49
856,46	1497,37
856,63	1438,49
856,80	1438,13
856,97	1468,70
857,14	1467,22
857,31	1425,39
857,49	1432,09
857,66	1465,53
857,83	1418,17
858,00	1413,00
858,17	1425,18
858,34	1426,26
858,52	1393,90
858,69	1424,21
858,86	1448,07
859,03	1410,85
859,20	1469,93
859,37	1436,96
859,55	1403,83
859,72	1438,54
859,89	1429,89
860,06	1451,96
860,23	1474,23
860,40	1410,23
860,57	1456,98
860,75	1395,59
860,92	1461,69
861,09	1443,92
861,26	1477,61
861,43	1425,80
861,60	1418,53
861,77	1410,03
861,95	1403,73
862,12	1453,90
862,29	1405,01
862,46	1448,07
862,63	1468,09
862,80	1461,64
862,97	1500,44
863,14	1397,74
863,31	1479,66
863,49	1447,91
863,66	1444,28
863,83	1464,14
864,00	1490,31
864,17	1405,78
864,34	1443,36
864,51	1392,57
864,68	1441,87
864,85	1414,22
865,02	1416,73
865,20	1449,96
865,37	1418,94
865,54	1417,66
865,71	1454,72
865,88	1406,90
866,05	1406,95
866,22	1419,50
866,39	1424,82
866,56	1420,16
866,73	1437,26
866,90	1509,76
867,07	1483,50
867,25	1425,85
867,42	1507,41
867,59	1446,48
867,76	1489,23
867,93	1434,60
868,10	1485,24
868,27	1422,31
868,44	1480,99
868,61	1455,03
868,78	1466,04
868,95	1419,96
869,12	1496,40
869,29	1458,10
869,46	1481,96
869,63	1465,73
869,80	1412,13
869,97	1479,96
870,14	1479,40
870,32	1463,94
870,49	1446,94
870,66	1474,69
870,83	1437,21
871,00	1425,08
871,17	1415,25
871,34	1447,40
871,51	1439,31
871,68	1421,29
871,85	1448,12
872,02	1484,62
872,19	1438,29
872,36	1401,89
872,53	1451,50
872,70	1437,16
872,87	1412,28
873,04	1390,83
873,21	1382,43
873,38	1405,37
873,55	1473,31
873,72	1432,35
873,89	1424,16
874,06	1378,18
874,23	1375,57
874,40	1404,14
874,57	1428,30
874,74	1489,39
874,91	1392,00
875,08	1424,41
875,25	1439,77
875,42	1445,76
875,59	1444,74
875,76	1434,96
875,93	1421,29
876,10	1475,72
876,27	1403,11
876,44	1508,99
876,61	1449,81
876,78	1420,11
876,95	1449,71
877,12	1412,13
877,29	1440,59
877,46	1434,50
877,62	1426,92
877,79	1401,22
877,96	1437,88
878,13	1405,06
878,30	1429,69
878,47	1460,61
878,64	1450,99
878,81	1431,33
878,98	1430,56
879,15	1474,49
879,32	1459,08
879,49	1458,05
879,66	1452,73
879,83	1414,07
880,00	1481,40
880,17	1393,34
880,34	1451,45
880,51	1419,34
880,67	1475,10
880,84	1359,03
881,01	1428,77
881,18	1477,92
881,35	1426,56
881,52	1507,46
881,69	1437,93
881,86	1480,84
882,03	1436,24
882,20	1446,69
882,37	1441,41
882,54	1471,26
882,70	1431,07
882,87	1414,79
883,04	1460,20
883,21	1450,47
883,38	1402,19
883,55	1418,37
883,72	1406,29
883,89	1414,53
884,06	1406,39
884,23	1406,24
884,39	1380,84
884,56	1449,35
884,73	1466,96
884,90	1427,33
885,07	1483,45
885,24	1406,34
885,41	1493,02
885,58	1421,14
885,74	1393,08
885,91	1470,44
886,08	1454,62
886,25	1417,35
886,42	1428,36
886,59	1443,92
886,76	1395,69
886,93	1370,04
887,09	1487,75
887,26	1565,93
887,43	1423,44
887,60	1429,99
887,77	1454,42
887,94	1454,37
888,10	1524,10
888,27	1481,45
888,44	1446,89
888,61	1368,04
888,78	1394,87
888,95	1439,72
889,12	1387,55
889,28	1463,38
889,45	1416,58
889,62	1424,57
889,79	1429,79
889,96	1447,45
890,13	1417,91
890,29	1433,99
890,46	1505,72
890,63	1461,23
890,80	1435,98
890,97	1420,22
891,13	1400,55
891,30	1465,48
891,47	1528,50
891,64	1419,34
891,81	1407,11
891,98	1396,77
892,14	1431,48
892,31	1397,89
892,48	1429,23
892,65	1416,07
892,82	1416,94
892,98	1379,87
893,15	1445,76
893,32	1432,76
