SpectraSuite Datei
++++++++++++++++++++++++++++++++++++
Datum: Tue Mar 08 09:34:15 CET 2016
Benutzer: Admin
Dark-Spektrum vorhanden: Ja
Referenz-Spektrum vorhanden: Nein
Zahl der probierten Teilspektren: 1
Spektrometer: USB4F05832
Integrationszeit (usec): 250000 (USB4F05832)
Spektren Durchschnitt berechnet: 5 (USB4F05832)
Boxcar Glï¿½ttung: 0 (USB4F05832)
Dunkelstromkorrektur: Nein (USB4F05832)
Puls/Lampe aktiviert: Nein (USB4F05832)
Correct for Detector Non-linearity: Nein (USB4F05832)
Streulichtkorrektur: Nein (USB4F05832)
Anzahl Pixel in verarbeitetem Spektrum: 3648
>>>>>Begin Processed Spectral Data<<<<<
177,54	-59,80
177,75	-59,80
177,97	-59,80
178,19	-59,66
178,41	-2,46
178,63	202,61
178,85	38,23
179,07	93,52
179,29	110,18
179,51	52,56
179,73	151,82
179,95	120,69
180,17	126,70
180,39	205,48
180,61	120,01
180,83	185,00
181,05	70,72
181,27	144,18
181,49	160,01
181,71	141,99
181,92	281,39
182,14	191,01
182,36	106,77
182,58	200,84
182,80	91,89
183,02	244,80
183,24	215,04
183,46	155,78
183,68	134,48
183,90	179,27
184,12	85,74
184,34	229,92
184,56	146,36
184,78	131,89
185,00	161,52
185,21	225,28
185,43	124,24
185,65	215,86
185,87	147,45
186,09	297,64
186,31	121,10
186,53	185,14
186,75	206,57
186,97	216,13
187,19	253,81
187,41	140,22
187,63	217,22
187,84	70,31
188,06	237,43
188,28	141,99
188,50	230,06
188,72	280,98
188,94	219,95
189,16	160,56
189,38	120,56
189,60	228,14
189,82	139,13
190,03	176,81
190,25	170,94
190,47	186,09
190,69	172,71
190,91	88,88
191,13	164,93
191,35	214,35
191,57	125,61
191,79	151,96
192,01	154,14
192,22	248,49
192,44	129,30
192,66	195,92
192,88	193,60
193,10	199,88
193,32	142,40
193,54	262,41
193,76	218,31
193,98	141,72
194,19	191,96
194,41	176,67
194,63	78,37
194,85	191,14
195,07	212,85
195,29	86,42
195,51	221,73
195,73	100,21
195,94	129,30
196,16	178,04
196,38	249,58
196,60	114,41
196,82	142,40
197,04	151,41
197,26	101,99
197,48	139,40
197,69	152,37
197,91	114,96
198,13	158,92
198,35	166,43
198,57	152,23
198,79	186,64
199,01	193,06
199,22	155,78
199,44	180,36
199,66	159,33
199,88	189,78
200,10	181,72
200,32	208,89
200,54	196,88
200,75	288,08
200,97	130,25
201,19	250,13
201,41	216,54
201,63	167,93
201,85	126,43
202,06	199,75
202,28	132,16
202,50	164,25
202,72	74,82
202,94	114,00
203,16	200,02
203,38	157,15
203,59	138,44
203,81	225,28
204,03	103,76
204,25	157,28
204,47	198,52
204,69	174,21
204,90	136,53
205,12	182,27
205,34	230,06
205,56	138,72
205,78	97,62
206,00	300,23
206,21	206,84
206,43	152,78
206,65	199,88
206,87	136,39
207,09	179,68
207,30	102,26
207,52	205,34
207,74	188,28
207,96	151,69
208,18	166,02
208,40	172,17
208,61	154,28
208,83	163,56
209,05	116,60
209,27	108,68
209,49	167,25
209,70	216,40
209,92	191,01
210,14	126,15
210,36	146,63
210,58	150,32
210,79	185,96
211,01	107,86
211,23	234,01
211,45	210,12
211,67	154,28
211,88	104,58
212,10	221,18
212,32	160,42
212,54	163,97
212,76	167,39
212,97	118,51
213,19	129,57
213,41	234,70
213,63	167,25
213,85	179,68
214,06	104,45
214,28	263,37
214,50	181,59
214,72	201,25
214,94	203,16
215,15	158,65
215,37	164,93
215,59	140,76
215,81	197,56
216,02	113,73
216,24	213,13
216,46	120,15
216,68	190,60
216,90	173,67
217,11	220,77
217,33	89,43
217,55	228,28
217,77	197,29
217,98	237,02
218,20	170,53
218,42	215,17
218,64	175,99
218,85	228,01
219,07	167,66
219,29	187,59
219,51	209,03
219,73	154,01
219,94	165,34
220,16	245,07
220,38	182,41
220,60	154,42
220,81	108,00
221,03	72,50
221,25	196,88
221,47	81,65
221,68	136,12
221,90	204,25
222,12	193,74
222,34	163,02
222,55	175,44
222,77	252,99
222,99	149,09
223,21	203,98
223,42	263,64
223,64	228,42
223,86	127,79
224,08	192,92
224,29	194,28
224,51	189,23
224,73	133,25
224,94	191,01
225,16	101,58
225,38	190,73
225,60	217,22
225,81	139,94
226,03	148,14
226,25	100,08
226,47	187,05
226,68	207,94
226,90	228,01
227,12	186,91
227,33	227,73
227,55	148,96
227,77	102,13
227,99	252,86
228,20	148,68
228,42	194,28
228,64	194,42
228,86	159,20
229,07	191,28
229,29	102,81
229,51	77,00
229,72	252,45
229,94	179,95
230,16	232,24
230,38	148,96
230,59	155,51
230,81	205,07
231,03	173,26
231,24	179,81
231,46	170,53
231,68	135,44
231,89	140,63
232,11	118,78
232,33	239,48
232,55	194,15
232,76	233,74
232,98	190,73
233,20	125,47
233,41	132,98
233,63	162,20
233,85	192,65
234,06	185,96
234,28	172,30
234,50	122,61
234,71	202,89
234,93	259,41
235,15	146,22
235,37	98,58
235,58	185,68
235,80	144,18
236,02	122,88
236,23	190,60
236,45	153,73
236,67	191,69
236,88	182,82
237,10	235,52
237,32	180,90
237,53	228,01
237,75	161,11
237,97	93,39
238,18	179,13
238,40	190,46
238,62	111,27
238,83	164,38
239,05	139,53
239,27	155,65
239,48	127,25
239,70	191,42
239,92	241,39
240,13	240,16
240,35	163,70
240,57	157,28
240,78	155,51
241,00	134,07
241,22	156,06
241,43	287,81
241,65	200,15
241,87	251,76
242,08	287,40
242,30	152,23
242,52	197,01
242,73	249,03
242,95	146,22
243,16	192,37
243,38	260,23
243,60	227,19
243,81	172,44
244,03	224,59
244,25	132,57
244,46	177,22
244,68	183,36
244,90	179,95
245,11	93,39
245,33	193,06
245,55	209,71
245,76	197,29
245,98	147,18
246,19	248,35
246,41	254,90
246,63	234,42
246,84	271,97
247,06	219,00
247,28	192,65
247,49	194,28
247,71	130,11
247,92	186,91
248,14	233,20
248,36	197,70
248,57	219,95
248,79	259,14
249,01	198,65
249,22	176,13
249,44	152,78
249,65	145,13
249,87	199,75
250,09	233,47
250,30	156,87
250,52	147,32
250,73	196,47
250,95	171,35
251,17	205,48
251,38	170,39
251,60	126,15
251,81	268,15
252,03	267,46
252,25	108,54
252,46	119,87
252,68	211,21
252,89	189,64
253,11	176,67
253,33	203,70
253,54	88,06
253,76	198,24
253,97	203,16
254,19	189,78
254,41	135,58
254,62	248,21
254,84	218,04
255,05	190,05
255,27	203,98
255,49	224,73
255,70	287,26
255,92	139,26
256,13	150,59
256,35	192,51
256,56	218,31
256,78	186,09
257,00	191,69
257,21	197,97
257,43	128,48
257,64	229,65
257,86	231,42
258,08	186,37
258,29	268,42
258,51	189,78
258,72	208,35
258,94	216,40
259,15	201,25
259,37	185,14
259,59	111,27
259,80	196,47
260,02	165,75
260,23	189,23
260,45	95,44
260,66	203,57
260,88	143,49
261,09	170,25
261,31	156,87
261,53	253,13
261,74	264,46
261,96	105,13
262,17	88,75
262,39	200,56
262,60	120,01
262,82	197,56
263,03	165,48
263,25	187,32
263,46	170,53
263,68	197,29
263,90	147,18
264,11	170,66
264,33	278,52
264,54	192,37
264,76	177,76
264,97	236,61
265,19	146,63
265,40	215,58
265,62	191,42
265,83	184,04
266,05	193,74
266,26	149,37
266,48	258,45
266,70	214,90
266,91	126,97
267,13	176,26
267,34	126,84
267,56	251,49
267,77	162,61
267,99	152,37
268,20	280,71
268,42	208,76
268,63	103,08
268,85	375,19
269,06	221,04
269,28	204,80
269,49	199,06
269,71	221,04
269,92	169,98
270,14	134,76
270,35	153,73
270,57	176,67
270,78	205,75
271,00	189,51
271,21	316,21
271,43	176,26
271,64	144,04
271,86	254,63
272,07	124,79
272,29	277,43
272,50	119,74
272,72	244,25
272,93	257,50
273,15	238,79
273,36	225,28
273,58	196,06
273,79	218,86
274,01	189,51
274,22	115,37
274,44	173,39
274,65	219,41
274,87	203,70
275,08	211,21
275,30	199,06
275,51	276,48
275,73	313,75
275,94	192,92
276,16	133,94
276,37	178,72
276,59	176,81
276,80	208,89
277,02	192,10
277,23	133,53
277,45	211,76
277,66	99,80
277,88	230,87
278,09	265,55
278,30	238,11
278,52	119,74
278,73	266,65
278,95	203,70
279,16	228,28
279,38	198,93
279,59	169,03
279,81	194,01
280,02	180,63
280,24	135,17
280,45	191,14
280,67	272,24
280,88	227,46
281,09	151,28
281,31	139,94
281,52	147,59
281,74	292,18
281,95	179,13
282,17	235,79
282,38	228,14
282,60	206,98
282,81	205,34
283,02	153,60
283,24	175,17
283,45	230,33
283,67	120,28
283,88	234,15
284,10	179,27
284,31	243,84
284,53	197,29
284,74	163,43
284,95	182,00
285,17	198,79
285,38	134,76
285,60	115,92
285,81	140,76
286,03	215,86
286,24	234,70
286,45	260,37
286,67	200,84
286,88	189,51
287,10	233,33
287,31	102,67
287,53	214,63
287,74	235,52
287,95	124,11
288,17	201,66
288,38	227,46
288,60	153,73
288,81	173,67
289,02	169,16
289,24	271,15
289,45	163,15
289,67	210,94
289,88	205,62
290,10	231,28
290,31	202,48
290,52	144,18
290,74	196,47
290,95	250,67
291,17	201,79
291,38	177,35
291,59	160,70
291,81	169,16
292,02	158,24
292,24	217,49
292,45	206,16
292,66	208,21
292,88	264,19
293,09	245,62
293,31	184,59
293,52	165,07
293,73	144,45
293,95	257,36
294,16	190,87
294,37	198,24
294,59	222,96
294,80	259,82
295,02	220,36
295,23	107,86
295,44	217,63
295,66	207,39
295,87	217,22
296,09	167,80
296,30	213,94
296,51	112,91
296,73	167,25
296,94	179,68
297,15	163,43
297,37	117,42
297,58	159,47
297,79	214,90
298,01	219,68
298,22	260,77
298,44	151,96
298,65	178,99
298,86	256,27
299,08	172,85
299,29	203,98
299,50	175,99
299,72	172,44
299,93	265,42
300,14	220,50
300,36	138,85
300,57	158,10
300,79	227,32
301,00	229,10
301,21	116,60
301,43	162,61
301,64	185,68
301,85	144,18
302,07	228,69
302,28	169,44
302,49	261,32
302,71	191,55
302,92	257,77
303,13	240,16
303,35	200,43
303,56	231,69
303,77	140,49
303,99	228,14
304,20	240,98
304,41	157,69
304,63	165,61
304,84	248,90
305,05	256,82
305,27	199,47
305,48	230,74
305,69	207,80
305,91	253,13
306,12	219,95
306,33	176,94
306,55	205,48
306,76	179,27
306,97	186,77
307,19	190,05
307,40	232,79
307,61	213,94
307,82	180,08
308,04	292,04
308,25	237,02
308,46	210,12
308,68	206,44
308,89	227,05
309,10	192,78
309,32	181,72
309,53	201,79
309,74	274,02
309,96	168,21
310,17	215,58
310,38	181,72
310,59	197,15
310,81	195,10
311,02	206,84
311,23	228,96
311,45	243,98
311,66	201,25
311,87	179,68
312,09	297,37
312,30	203,16
312,51	214,35
312,72	257,63
312,94	251,35
313,15	185,96
313,36	267,74
313,58	198,79
313,79	277,29
314,00	218,72
314,21	145,00
314,43	243,57
314,64	202,34
314,85	174,35
315,06	115,10
315,28	290,81
315,49	243,44
315,70	217,36
315,92	267,19
316,13	317,98
316,34	269,51
316,55	260,23
316,77	163,84
316,98	289,45
317,19	201,52
317,40	120,97
317,62	179,95
317,83	302,28
318,04	224,32
318,25	174,08
318,47	212,58
318,68	262,96
318,89	278,93
319,11	194,83
319,32	247,26
319,53	331,36
319,74	279,21
319,96	277,98
320,17	249,03
320,38	180,49
320,59	317,98
320,81	265,96
321,02	231,01
321,23	248,35
321,44	314,43
321,65	262,28
321,87	267,46
322,08	332,18
322,29	234,97
322,50	246,85
322,72	272,79
322,93	284,53
323,14	241,93
323,35	250,81
323,57	353,62
323,78	307,33
323,99	349,52
324,20	376,69
324,41	273,47
324,63	348,02
324,84	379,97
325,05	384,88
325,26	390,07
325,48	374,37
325,69	382,83
325,90	478,95
326,11	431,58
326,32	421,88
326,54	465,71
326,75	411,78
326,96	455,74
327,17	482,64
327,39	500,11
327,60	476,08
327,81	470,76
328,02	464,75
328,23	518,96
328,45	527,56
328,66	545,85
328,87	572,20
329,08	620,26
329,29	628,59
329,51	627,36
329,72	670,91
329,93	743,82
330,14	630,09
330,35	718,15
330,56	696,72
330,78	766,62
330,99	793,66
331,20	914,21
331,41	867,38
331,62	840,90
331,84	930,73
332,05	947,66
332,26	1009,38
332,47	1018,11
332,68	913,67
332,90	1010,33
333,11	925,82
333,32	1151,78
333,53	1081,60
333,74	1016,20
333,95	1178,95
334,17	1185,64
334,38	1249,26
334,59	1227,14
334,80	1285,44
335,01	1350,98
335,22	1341,28
335,44	1310,29
335,65	1284,35
335,86	1336,37
336,07	1273,29
336,28	1324,08
336,49	1290,77
336,71	1346,20
336,92	1532,43
337,13	1522,05
337,34	1565,74
337,55	1793,47
337,76	1725,62
337,97	1794,16
338,19	1851,77
338,40	1794,29
338,61	2006,87
338,82	1977,79
339,03	2159,11
339,24	2104,77
339,45	2145,04
339,67	2293,59
339,88	2308,61
340,09	2312,43
340,30	2254,81
340,51	2433,12
340,72	2406,09
340,93	2357,49
341,15	2467,94
341,36	2645,02
341,57	2616,89
341,78	2726,26
341,99	2798,75
342,20	2895,55
342,41	2904,29
342,62	3000,96
342,84	2845,99
343,05	2904,29
343,26	2729,53
343,47	2770,08
343,68	2573,20
343,89	2673,83
344,10	2793,29
344,31	2894,46
344,53	3097,35
344,74	3216,54
344,95	3273,88
345,16	3370,27
345,37	3349,25
345,58	3439,36
345,79	3510,22
346,00	3555,68
346,21	3657,40
346,42	3798,30
346,64	3772,77
346,85	3873,66
347,06	3812,50
347,27	3815,50
347,48	4038,46
347,69	3968,96
347,90	4032,31
348,11	4216,77
348,32	4048,42
348,53	4195,88
348,75	4214,86
348,96	4264,69
349,17	4488,60
349,38	4740,09
349,59	4792,25
349,80	5070,63
350,01	5202,93
350,22	5333,05
350,43	5135,49
350,64	5338,10
350,85	5304,24
351,06	5078,83
351,28	5091,11
351,49	5084,70
351,70	5212,90
351,91	5075,00
352,12	5224,10
352,33	5190,65
352,54	5557,23
352,75	5741,28
352,96	5973,11
353,17	6319,76
353,38	6406,59
353,59	6521,69
353,80	6762,53
354,01	6722,25
354,22	6644,16
354,44	6607,70
354,65	6721,84
354,86	6678,43
355,07	6494,11
355,28	6437,04
355,49	6481,27
355,70	6246,71
355,91	6190,46
356,12	5862,52
356,33	5767,35
356,54	5737,32
356,75	5653,49
356,96	5653,76
357,17	5490,19
357,38	5346,43
357,59	5146,82
357,80	5177,13
358,01	5423,98
358,22	5498,39
358,43	6065,67
358,64	6548,72
358,85	6968,55
359,07	7364,50
359,28	7577,62
359,49	7694,08
359,70	7565,33
359,91	7406,14
360,12	7136,22
360,33	7144,95
360,54	7081,47
360,75	7084,20
360,96	6977,57
361,17	6880,90
361,38	7210,62
361,59	7867,20
361,80	8120,33
362,01	8254,00
362,22	8202,25
362,43	8483,92
362,64	8330,04
362,85	8670,01
363,06	8487,60
363,27	8872,07
363,48	9012,84
363,69	8979,80
363,90	8836,58
364,11	9021,44
364,32	9091,07
364,53	9547,08
364,74	10014,70
364,95	10529,84
365,16	10649,57
365,37	11162,93
365,58	11179,04
365,79	11292,09
366,00	11345,75
366,21	11242,39
366,42	11255,09
366,63	11196,38
366,84	10950,63
367,05	10797,44
367,26	10618,99
367,47	10513,86
367,68	10200,39
367,89	10185,23
368,10	9943,02
368,31	9813,05
368,52	10155,74
368,73	10896,97
368,94	11252,22
369,15	11146,41
369,36	11454,15
369,57	11385,61
369,78	11164,43
369,99	11353,67
370,20	11379,20
370,40	11516,27
370,61	11910,99
370,82	11942,66
371,03	11866,75
371,24	11735,13
371,45	11469,44
371,66	10969,06
371,87	10889,32
372,08	11251,68
372,29	10929,87
372,50	10230,01
372,71	10145,09
372,92	10046,65
373,13	9702,59
373,34	9783,42
373,55	9709,69
373,76	9746,83
373,97	9487,69
374,18	9841,99
374,39	10011,02
374,60	10640,97
374,81	10952,13
375,01	11031,86
375,22	11543,72
375,43	11526,38
375,64	11645,98
375,85	11367,73
376,06	11827,29
376,27	12077,14
376,48	12573,85
376,69	12852,92
376,90	13372,96
377,11	14398,18
377,32	14164,84
377,53	14664,14
377,74	14643,25
377,94	14168,39
378,15	14025,31
378,36	13140,72
378,57	12862,75
378,78	12297,10
378,99	12254,36
379,20	12408,64
379,41	12530,84
379,62	12741,64
379,83	13118,61
380,04	13455,56
380,25	13467,03
380,45	13415,15
380,66	12867,66
380,87	12417,11
381,08	11770,09
381,29	11165,25
381,50	10372,42
381,71	10117,10
381,92	9583,67
382,13	9123,15
382,34	8610,21
382,55	8491,29
382,75	8421,52
382,96	8479,55
383,17	8774,45
383,38	9480,05
383,59	10042,42
383,80	10668,82
384,01	11310,93
384,22	12273,07
384,43	12233,47
384,63	11707,42
384,84	12093,80
385,05	11695,27
385,26	11908,53
385,47	12011,06
385,68	12300,78
385,89	12325,90
386,10	12341,47
386,30	12341,33
386,51	11883,68
386,72	12434,45
386,93	12131,35
387,14	12170,94
387,35	12553,78
387,56	12211,08
387,77	11967,37
387,97	12409,73
388,18	12854,01
388,39	13128,71
388,60	13934,79
388,81	14268,88
389,02	14772,82
389,23	15214,50
389,43	15144,32
389,64	15253,54
389,85	15278,94
390,06	15708,06
390,27	16211,58
390,48	16619,95
390,69	16488,33
390,89	16942,71
391,10	16425,12
391,31	15801,58
391,52	15414,51
391,73	14366,64
391,94	13041,74
392,14	11602,97
392,35	10221,00
392,56	9567,02
392,77	9130,80
392,98	8994,68
393,19	9529,20
393,39	10498,71
393,60	11587,27
393,81	13178,13
394,02	13864,48
394,23	15037,01
394,44	15622,72
394,64	16366,55
394,85	17050,02
395,06	15920,09
395,27	15572,75
395,48	14863,88
395,69	12941,39
395,89	12271,57
396,10	11553,14
396,31	10740,23
396,52	11198,70
396,73	12233,47
396,93	13780,78
397,14	15000,28
397,35	17155,29
397,56	18021,72
397,77	19115,74
397,97	20456,89
398,18	21409,87
398,39	21101,04
398,60	22139,77
398,81	21923,92
399,01	22579,13
399,22	22339,11
399,43	23084,29
399,64	22996,64
399,85	22738,32
400,05	22896,43
400,26	23103,68
400,47	23328,55
400,68	23791,66
400,89	23569,39
401,09	24045,06
401,30	24459,85
401,51	24344,89
401,72	24270,20
401,93	24957,64
402,13	24381,61
402,34	23904,71
402,55	23988,68
402,76	23830,85
402,96	23937,34
403,17	23218,91
403,38	23831,53
403,59	22949,26
403,80	24484,01
404,00	23699,50
404,21	23162,94
404,42	24163,85
404,63	23820,74
404,83	23975,57
405,04	22748,15
405,25	23040,88
405,46	22872,40
405,66	22352,76
405,87	22563,02
406,08	22432,36
406,29	23301,92
406,49	22767,13
406,70	23049,34
406,91	22461,03
407,12	23914,68
407,32	23334,83
407,53	24369,05
407,74	24627,78
407,95	23922,60
408,15	25164,89
408,36	24739,33
408,57	24815,78
408,78	24425,58
408,98	23680,12
409,19	22740,37
409,40	23349,03
409,61	22248,04
409,81	22542,27
410,02	22901,21
410,23	23568,43
410,44	24584,64
410,64	24847,46
410,85	24799,26
411,06	25338,83
411,26	24814,42
411,47	25525,34
411,68	25518,78
411,89	24385,16
412,09	25149,33
412,30	24712,84
412,51	23867,30
412,72	24212,45
412,92	25229,88
413,13	24735,78
413,34	24657,41
413,54	24581,22
413,75	24861,11
413,96	24734,41
414,17	24160,16
414,37	24608,26
414,58	24424,21
414,79	24786,43
414,99	24336,83
415,20	24994,37
415,41	25109,87
415,61	25523,83
415,82	25646,99
416,03	24127,12
416,24	24561,02
416,44	24595,70
416,65	24557,88
416,86	24827,93
417,06	23802,59
417,27	23650,35
417,48	23499,35
417,68	24089,30
417,89	24183,51
418,10	23100,81
418,30	24142,00
418,51	23853,51
418,72	23775,96
418,92	24455,61
419,13	23157,47
419,34	23740,60
419,55	23519,15
419,75	24644,85
419,96	24168,49
420,17	25514,55
420,37	25239,17
420,58	24242,08
420,79	24131,49
420,99	25199,16
421,20	25498,03
421,41	24341,06
421,61	24197,02
421,82	22962,37
422,03	23633,42
422,23	22781,47
422,44	23707,56
422,65	23535,39
422,85	23498,80
423,06	23635,47
423,26	24166,44
423,47	24571,12
423,68	23970,52
423,88	24484,83
424,09	23867,85
424,30	24184,05
424,50	24191,02
424,71	24276,35
424,92	23855,01
425,12	23772,14
425,33	24519,78
425,54	24723,08
425,74	24663,14
425,95	23986,90
426,15	24535,35
426,36	22970,70
426,57	23692,81
426,77	22956,09
426,98	23432,59
427,19	23291,55
427,39	23700,46
427,60	22976,43
427,81	23194,07
428,01	22989,40
428,22	23674,66
428,42	21786,70
428,63	22280,26
428,84	21642,93
429,04	20527,75
429,25	19604,52
429,45	18507,63
429,66	18572,35
429,87	18576,31
430,07	18195,25
430,28	18490,02
430,49	19342,52
430,69	20884,91
430,90	21868,89
431,10	22540,08
431,31	23199,39
431,52	24145,14
431,72	23637,11
431,93	23844,50
432,13	24773,19
432,34	25545,00
432,55	24073,87
432,75	25071,37
432,96	24465,17
433,16	23784,84
433,37	23886,42
433,58	24481,28
433,78	24504,63
433,99	22859,02
434,19	24722,53
434,40	24951,77
434,60	25577,90
434,81	25645,62
435,02	25846,46
435,22	26702,78
435,43	26320,90
435,63	26588,78
435,84	27380,80
436,05	27399,09
436,25	25859,84
436,46	27242,90
436,66	26703,33
436,87	26379,48
437,07	25168,03
437,28	24855,24
437,48	24836,67
437,69	23951,68
437,90	24114,42
438,10	24064,04
438,31	24211,36
438,51	25569,30
438,72	25082,16
438,92	25176,77
439,13	25347,98
439,34	25286,13
439,54	25498,44
439,75	24986,58
439,95	25047,89
440,16	25683,71
440,36	26014,94
440,57	26023,27
440,77	26862,80
440,98	26561,06
441,18	26575,26
441,39	26873,04
441,60	28123,53
441,80	27766,50
442,01	26581,95
442,21	27724,17
442,42	26691,45
442,62	27321,54
442,83	26944,85
443,03	27380,11
443,24	27277,31
443,44	27316,22
443,65	27382,16
443,85	26935,57
444,06	27337,93
444,26	27163,17
444,47	26603,66
444,67	27063,22
444,88	26207,31
445,09	25442,33
445,29	26061,36
445,50	25936,71
445,70	25615,17
445,91	26092,76
446,11	25670,06
446,32	26903,62
446,52	27186,24
446,73	27190,61
446,93	27886,92
447,14	27633,11
447,34	27967,61
447,55	27122,34
447,75	27677,07
447,96	28257,05
448,16	27513,09
448,37	27817,56
448,57	27276,90
448,78	27940,03
448,98	27768,82
449,19	28076,01
449,39	28629,78
449,60	28546,91
449,80	29301,11
450,01	29427,26
450,21	29078,29
450,42	29464,95
450,62	28938,07
450,83	28758,53
451,03	28342,25
451,23	28439,46
451,44	28238,62
451,64	28358,50
451,85	27345,02
452,05	27740,28
452,26	26971,20
452,46	26846,00
452,67	26630,42
452,87	26615,13
453,08	27128,49
453,28	25999,24
453,49	28079,02
453,69	27080,97
453,90	27709,70
454,10	28015,94
454,31	27682,39
454,51	27499,44
454,71	27762,26
454,92	27663,55
455,12	27637,20
455,33	28471,00
455,53	28912,27
455,74	30008,07
455,94	30029,37
456,15	30343,66
456,35	31569,98
456,55	30441,42
456,76	31058,81
456,96	32132,22
457,17	29703,33
457,37	32204,04
457,58	30710,25
457,78	31660,37
457,99	31089,80
458,19	29623,87
458,39	31358,09
458,60	32173,59
458,80	31096,36
459,01	30528,80
459,21	30099,13
459,42	31240,40
459,62	30221,33
459,82	32957,82
460,03	32390,95
460,23	32525,84
460,44	32848,46
460,64	31034,51
460,85	33697,41
461,05	31906,81
461,25	31752,53
461,46	33860,71
461,66	33563,34
461,87	32583,32
462,07	33013,80
462,27	31967,97
462,48	32023,00
462,68	32512,87
462,89	32337,15
463,09	31851,10
463,29	32477,64
463,50	31705,29
463,70	32189,02
463,91	31114,52
464,11	30980,03
464,31	31483,29
464,52	31557,83
464,72	32997,28
464,93	32244,45
465,13	32954,68
465,33	32147,92
465,54	31615,45
465,74	31446,01
465,95	31876,63
466,15	31556,19
466,35	32227,93
466,56	32443,10
466,76	32748,25
466,96	32337,43
467,17	32567,75
467,37	32604,75
467,58	32799,99
467,78	32959,74
467,98	33368,78
468,19	33154,02
468,39	34008,16
468,59	34369,15
468,80	33391,04
469,00	33142,82
469,21	33245,09
469,41	33134,36
469,61	33876,54
469,82	32729,41
470,02	33758,03
470,22	34295,56
470,43	34352,35
470,63	34015,81
470,83	35992,78
471,04	35643,67
471,24	35850,65
471,45	36046,71
471,65	36740,83
471,85	36083,02
472,06	36899,75
472,26	36447,70
472,46	36888,70
472,67	36944,95
472,87	36953,00
473,07	36961,74
473,28	36932,39
473,48	37910,91
473,68	37878,14
473,89	38374,02
474,09	38922,87
474,29	38378,25
474,50	38848,74
474,70	38644,21
474,90	38944,86
475,11	38869,22
475,31	38773,24
475,51	38215,51
475,72	38351,22
475,92	37703,65
476,12	37842,23
476,33	39129,72
476,53	39516,38
476,73	40079,98
476,93	40938,62
477,14	40681,67
477,34	40724,68
477,54	41100,28
477,75	41260,56
477,95	40962,65
478,15	41152,16
478,36	41799,32
478,56	41946,91
478,76	42450,71
478,97	42561,43
479,17	42281,27
479,37	42313,22
479,57	42296,15
479,78	42136,96
479,98	42915,59
480,18	43295,29
480,39	43388,68
480,59	44447,61
480,79	44324,05
480,99	44359,96
481,20	45260,66
481,40	44645,17
481,60	44669,88
481,81	44596,70
482,01	44872,09
482,21	44178,92
482,41	44788,39
482,62	44292,51
482,82	44885,33
483,02	45773,47
483,23	45001,79
483,43	45844,19
483,63	44645,17
483,83	44891,20
484,04	45962,29
484,24	45202,63
484,44	44988,55
484,64	43751,99
484,85	42782,75
485,05	41623,74
485,25	41140,42
485,45	40017,17
485,66	39971,43
485,86	39577,00
486,06	40265,39
486,26	41183,56
486,47	41944,99
486,67	42856,34
486,87	43349,08
487,07	44143,83
487,28	44334,02
487,48	44774,88
487,68	45675,44
487,88	45566,21
488,09	45693,46
488,29	45667,66
488,49	46724,00
488,69	46672,25
488,90	47593,70
489,10	47552,47
489,30	47917,01
489,50	48376,03
489,71	48414,12
489,91	48489,21
490,11	48569,35
490,31	48120,17
490,52	47877,82
490,72	47407,75
490,92	47759,45
491,12	46931,39
491,32	46432,78
491,53	46537,77
491,73	46657,10
491,93	47248,00
492,13	47768,05
492,33	47764,09
492,54	47335,38
492,74	48153,89
492,94	47827,58
493,14	48156,62
493,35	48406,61
493,55	48595,16
493,75	49093,77
493,95	49490,39
494,15	49486,98
494,36	50093,73
494,56	49200,67
494,76	49373,52
494,96	48931,57
495,16	49261,70
495,37	49150,29
495,57	49354,41
495,77	49353,04
495,97	49375,43
496,17	49791,45
496,37	49266,62
496,58	49589,52
496,78	48640,76
496,98	49208,32
497,18	48483,34
497,38	48206,18
497,59	48141,87
497,79	47245,00
497,99	47463,45
498,19	48045,89
498,39	47872,91
498,59	48131,50
498,80	47983,23
499,00	47710,30
499,20	47871,68
499,40	46841,55
499,60	47077,75
499,80	46539,82
500,01	46565,48
500,21	46021,41
500,41	45629,97
500,61	45910,27
500,81	44879,87
501,01	45426,68
501,22	44944,45
501,42	45366,74
501,62	45203,45
501,82	45414,12
502,02	45829,99
502,22	45642,81
502,42	45686,50
502,63	46113,02
502,83	45585,74
503,03	45256,42
503,23	45067,33
503,43	44364,05
503,63	44263,29
503,83	45009,85
504,04	44459,90
504,24	44863,49
504,44	44944,04
504,64	45629,29
504,84	45700,29
505,04	45765,96
505,24	46391,54
505,44	46146,06
505,65	46069,74
505,85	45949,46
506,05	45349,40
506,25	45316,77
506,45	44624,56
506,65	44041,57
506,85	44465,50
507,05	44261,79
507,26	43921,56
507,46	43694,10
507,66	43933,03
507,86	43915,14
508,06	44669,34
508,26	44410,88
508,46	44426,31
508,66	44684,49
508,86	44679,44
509,06	44212,23
509,27	44314,90
509,47	44069,83
509,67	44044,84
509,87	44049,62
510,07	44253,87
510,27	44499,49
510,47	44593,97
510,67	44740,06
510,87	44561,75
511,07	45081,39
511,28	44676,57
511,48	44280,77
511,68	44289,24
511,88	43981,63
512,08	43627,06
512,28	43573,68
512,48	43207,09
512,68	43169,54
512,88	42853,61
513,08	43156,44
513,28	42669,02
513,48	42850,20
513,68	42930,48
513,89	42923,92
514,09	42537,27
514,29	43322,18
514,49	43360,14
514,69	43345,26
514,89	43607,26
515,09	43801,68
515,29	43488,62
515,49	42855,79
515,69	41779,93
515,89	40928,52
516,09	39987,96
516,29	39230,21
516,49	39237,44
516,69	39705,20
516,89	39521,15
517,09	39766,09
517,29	39929,25
517,50	39769,10
517,70	40096,63
517,90	39997,65
518,10	40229,75
518,30	41435,60
518,50	41091,54
518,70	41981,86
518,90	43343,21
519,10	43353,31
519,30	43830,35
519,50	44026,14
519,70	44218,10
519,90	44075,84
520,10	44383,58
520,30	44082,53
520,50	44265,89
520,70	44939,67
520,90	44675,21
521,10	44917,42
521,30	44848,19
521,50	45487,43
521,70	45117,43
521,90	44476,56
522,10	44886,01
522,30	44258,93
522,50	44372,38
522,70	44464,41
522,90	45032,24
523,10	45525,12
523,30	45724,04
523,50	46199,72
523,70	46341,57
523,90	46270,17
524,10	46265,12
524,30	45956,15
524,50	46406,56
524,70	46486,84
524,90	46093,22
525,10	46052,40
525,30	45257,11
525,50	44772,01
525,70	44098,23
525,90	42822,21
526,10	42397,46
526,30	42407,56
526,50	42450,57
526,70	42741,79
526,90	42947,82
527,10	43275,76
527,30	43789,53
527,50	44788,26
527,70	44792,08
527,90	45465,45
528,10	45460,81
528,30	46168,45
528,50	46410,25
528,70	45906,58
528,90	46269,35
529,10	46071,79
529,30	45694,96
529,50	46241,77
529,70	46042,30
529,90	46201,63
530,10	46581,32
530,29	46472,37
530,49	46782,71
530,69	46651,23
530,89	46645,90
531,09	46070,56
531,29	45486,21
531,49	45410,70
531,69	44564,62
531,89	44285,14
532,09	43985,18
532,29	43784,62
532,49	43738,61
532,69	44173,73
532,89	44169,22
533,09	44155,03
533,29	44297,15
533,49	44400,65
533,68	44458,12
533,88	45033,47
534,08	44800,95
534,28	44833,86
534,48	45054,63
534,68	45593,66
534,88	45301,61
535,08	46068,65
535,28	45925,29
535,48	45533,44
535,68	45034,42
535,88	44698,01
536,08	44638,07
536,27	44147,79
536,47	43762,63
536,67	44260,56
536,87	44255,24
537,07	44247,59
537,27	44499,77
537,47	44287,46
537,67	43971,66
537,87	44050,85
538,07	44528,30
538,27	43871,72
538,46	43786,53
538,66	43202,99
538,86	42627,51
539,06	42811,28
539,26	42247,96
539,46	41831,67
539,66	41673,02
539,86	41442,56
540,06	41400,78
540,25	41171,41
540,45	41367,88
540,65	41389,58
540,85	42142,01
541,05	42242,09
541,25	42174,64
541,45	42129,04
541,65	42176,41
541,85	41913,05
542,04	41951,82
542,24	41684,49
542,44	41677,53
542,64	41600,80
542,84	41860,34
543,04	41921,10
543,24	41777,88
543,43	41817,20
543,63	42289,19
543,83	41924,24
544,03	41626,60
544,23	41637,66
544,43	41728,32
544,63	41726,27
544,82	41862,94
545,02	41180,28
545,22	41701,01
545,42	40975,76
545,62	41567,76
545,82	41375,25
546,02	41132,63
546,21	40929,07
546,41	40580,36
546,61	40360,14
546,81	40459,40
547,01	39791,90
547,21	39984,13
547,40	39994,51
547,60	39777,83
547,80	39729,64
548,00	40108,10
548,20	40265,93
548,40	40008,98
548,59	40096,77
548,79	40354,00
548,99	40259,38
549,19	40076,70
549,39	39780,02
549,59	40019,63
549,78	39305,57
549,98	39543,41
550,18	39361,69
550,38	39281,41
550,58	39339,57
550,77	39410,02
550,97	39713,25
551,17	39146,10
551,37	39757,63
551,57	39398,69
551,76	39106,65
551,96	38852,02
552,16	38629,61
552,36	38792,08
552,56	38506,18
552,75	38517,92
552,95	38628,38
553,15	38871,54
553,35	38808,87
553,55	38424,81
553,74	38980,08
553,94	38236,81
554,14	38735,42
554,34	38285,14
554,54	38579,36
554,73	38560,79
554,93	38375,79
555,13	38407,47
555,33	37693,41
555,53	37732,73
555,72	37332,56
555,92	36943,04
556,12	36770,05
556,32	36685,13
556,51	36828,49
556,71	36805,41
556,91	36325,50
557,11	36489,34
557,30	36516,65
557,50	36329,19
557,70	35760,26
557,90	35760,95
558,10	35368,15
558,29	34934,52
558,49	35200,21
558,69	34894,11
558,89	34613,81
559,08	34743,65
559,28	34890,83
559,48	35081,84
559,68	35101,50
559,87	35412,25
560,07	35583,05
560,27	35623,19
560,47	35482,15
560,66	35421,53
560,86	34887,69
561,06	34828,17
561,25	34929,75
561,45	34779,42
561,65	34833,76
561,85	34747,34
562,04	34731,37
562,24	34807,28
562,44	34873,63
562,64	34672,25
562,83	35175,64
563,03	34527,11
563,23	34619,27
563,42	34086,53
563,62	34447,24
563,82	34090,62
564,02	34390,31
564,21	34039,15
564,41	33974,85
564,61	33862,62
564,80	33695,37
565,00	33446,88
565,20	32950,18
565,40	32956,32
565,59	32749,75
565,79	33048,07
565,99	33132,72
566,18	33033,74
566,38	33219,42
566,58	33351,72
566,78	33196,62
566,97	33452,89
567,17	33281,13
567,37	33263,24
567,56	32896,66
567,76	32651,04
567,96	32600,80
568,15	32285,82
568,35	32304,25
568,55	32380,98
568,74	32137,82
568,94	32292,78
569,14	32083,34
569,33	31793,90
569,53	31576,67
569,73	31611,35
569,92	31005,29
570,12	31038,33
570,32	30829,17
570,52	30495,62
570,71	30820,84
570,91	30816,47
571,11	31153,97
571,30	31244,08
571,50	31431,00
571,70	31564,11
571,89	31491,62
572,09	31571,90
572,28	31702,97
572,48	31456,12
572,68	31563,02
572,87	31606,17
573,07	31932,20
573,27	31469,63
573,46	31619,68
573,66	31270,84
573,86	31102,50
574,05	31345,94
574,25	30910,13
574,45	30581,23
574,64	30573,85
574,84	30516,37
575,04	30237,99
575,23	30476,51
575,43	30623,14
575,62	30493,57
575,82	30301,75
576,02	30114,02
576,21	30341,48
576,41	30603,62
576,61	30438,00
576,80	30155,52
577,00	30041,93
577,19	30028,55
577,39	30179,14
577,59	29904,44
577,78	29745,11
577,98	29749,48
578,18	29639,98
578,37	29798,35
578,57	30080,29
578,76	29966,56
578,96	29874,95
579,16	30039,47
579,35	30426,26
579,55	30017,49
579,74	30309,53
579,94	30188,83
580,14	30616,04
580,33	30713,39
580,53	30667,38
580,72	30572,08
580,92	30593,65
581,12	30476,64
581,31	30672,29
581,51	30988,50
581,70	30939,35
581,90	31130,76
582,10	30900,30
582,29	31231,93
582,49	30998,46
582,68	31102,50
582,88	31079,43
583,07	31089,94
583,27	31030,00
583,47	31222,79
583,66	31290,50
583,86	30936,75
584,05	30826,30
584,25	30511,87
584,44	30658,23
584,64	30327,00
584,84	30275,94
585,03	29987,04
585,23	29828,53
585,42	30113,61
585,62	29706,06
585,81	29897,20
586,01	30077,29
586,20	30181,19
586,40	30169,86
586,60	30019,95
586,79	30104,46
586,99	29883,96
587,18	29753,98
587,38	29711,52
587,57	29127,17
587,77	28763,31
587,96	28263,88
588,16	27438,69
588,35	26940,76
588,55	26528,57
588,75	26415,66
588,94	26351,08
589,14	26353,40
589,33	26549,46
589,53	27147,33
589,72	27089,71
589,92	27518,42
590,11	27287,14
590,31	27787,11
590,50	27905,21
590,70	27890,19
590,89	27995,60
591,09	27732,91
591,28	27815,65
591,48	27745,47
591,67	27610,44
591,87	27826,71
592,06	27703,69
592,26	27772,78
592,45	27610,03
592,65	28057,72
592,84	27745,88
593,04	27711,75
593,23	27775,51
593,43	27521,97
593,62	27377,66
593,82	27105,00
594,01	26947,17
594,21	27246,59
594,40	27060,49
594,60	26696,64
594,79	27152,24
594,99	26928,88
595,18	27155,38
595,38	27108,96
595,57	26917,68
595,77	27399,64
595,96	27112,10
596,16	27242,63
596,35	27190,61
596,55	26853,10
596,74	26965,88
596,94	26854,20
597,13	26700,87
597,33	26746,88
597,52	26550,14
597,72	26491,84
597,91	26511,64
598,11	26539,35
598,30	26439,96
598,50	26569,94
598,69	26316,13
598,88	26417,57
599,08	26119,79
599,27	26459,35
599,47	26107,10
599,66	26068,32
599,86	26197,75
600,05	26178,37
600,25	26156,11
600,44	25747,20
600,64	25821,88
600,83	25687,81
601,02	25807,41
601,22	25594,69
601,41	25352,35
601,61	25394,68
601,80	25350,85
602,00	25439,87
602,19	25275,89
602,38	25262,38
602,58	25331,19
602,77	25316,03
602,97	25434,27
603,16	25639,20
603,36	25284,90
603,55	25756,07
603,74	25312,48
603,94	25367,78
604,13	25390,72
604,33	25293,92
604,52	25150,83
604,72	25178,82
604,91	25106,19
605,10	25168,44
605,30	24744,24
605,49	24913,95
605,69	24868,07
605,88	24637,61
606,07	24926,37
606,27	24774,00
606,46	24666,42
606,66	24641,16
606,85	24131,08
607,04	24120,43
607,24	24055,85
607,43	24177,23
607,63	23883,55
607,82	23759,03
608,01	23888,05
608,21	23530,75
608,40	23677,80
608,60	23487,74
608,79	23458,53
608,98	23245,54
609,18	23552,87
609,37	23212,22
609,57	23078,29
609,76	23216,46
609,95	23153,24
610,15	23149,97
610,34	23212,50
610,53	23100,27
610,73	23007,29
610,92	23050,98
611,11	23091,80
611,31	23164,98
611,50	23011,39
611,70	22988,45
611,89	23043,88
612,08	22909,81
612,28	22846,87
612,47	22999,64
612,66	22839,08
612,86	22799,49
613,05	22605,89
613,24	22461,30
613,44	22511,41
613,63	22674,43
613,82	22774,78
614,02	22920,18
614,21	22583,50
614,41	22817,10
614,60	22927,97
614,79	22678,80
614,99	22558,24
615,18	22773,82
615,37	22232,89
615,57	22549,64
615,76	22217,59
615,95	22073,14
616,15	22128,58
616,34	22661,87
616,53	22637,97
616,73	22729,45
616,92	22607,25
617,11	22830,48
617,30	22882,09
617,50	23112,28
617,69	23343,02
617,88	23218,78
618,08	23016,30
618,27	23396,95
618,46	23236,80
618,66	23237,62
618,85	23426,44
619,04	23582,63
619,24	23620,45
619,43	23754,39
619,62	23650,22
619,82	23854,06
620,01	23815,56
620,20	24034,01
620,39	23523,11
620,59	23596,29
620,78	23594,24
620,97	23716,57
621,17	23500,85
621,36	23654,72
621,55	23412,92
621,74	23496,35
621,94	23230,79
622,13	23478,32
622,32	23339,88
622,52	23171,26
622,71	23149,97
622,90	23117,06
623,09	22920,32
623,29	22862,16
623,48	22908,71
623,67	22835,67
623,86	22753,62
624,06	22679,21
624,25	22710,47
624,44	22600,29
624,64	22599,06
624,83	22345,11
625,02	22263,60
625,21	22262,79
625,41	22296,78
625,60	22445,74
625,79	22330,10
625,98	22446,83
626,18	22712,93
626,37	22367,23
626,56	22115,74
626,75	21991,91
626,95	21425,58
627,14	21184,05
627,33	21206,17
627,52	21283,17
627,72	21255,73
627,91	21308,43
628,10	21238,66
628,29	21332,33
628,49	21145,28
628,68	21193,75
628,87	21088,07
629,06	21368,10
629,25	21083,57
629,45	20899,11
629,64	20953,59
629,83	21131,49
630,02	20960,69
630,22	21135,31
630,41	21057,08
630,60	20968,61
630,79	20738,28
630,98	20825,52
631,18	20651,17
631,37	20676,43
631,56	20878,50
631,75	21118,38
631,94	21130,94
632,14	21147,19
632,33	21006,56
632,52	21232,93
632,71	21353,08
632,90	21157,29
633,10	20993,73
633,29	20719,16
633,48	20890,92
633,67	21030,32
633,86	21082,20
634,06	20957,27
634,25	21006,29
634,44	21057,35
634,63	20810,09
634,82	21054,89
635,02	20804,90
635,21	20825,38
635,40	20599,70
635,59	20671,51
635,78	20752,75
635,97	20792,75
636,17	20514,64
636,36	20988,95
636,55	20791,93
636,74	20951,40
636,93	20677,38
637,12	20859,11
637,32	20921,50
637,51	20731,31
637,70	20646,67
637,89	20866,34
638,08	20711,11
638,27	20882,73
638,47	20484,60
638,66	20767,36
638,85	20276,80
639,04	20470,54
639,23	20310,93
639,42	20346,43
639,62	20321,86
639,81	20140,27
640,00	20157,47
640,19	19980,67
640,38	19732,86
640,57	20106,14
640,76	19970,84
640,95	20033,91
641,15	19852,46
641,34	19958,68
641,53	19877,72
641,72	19892,74
641,91	19981,89
642,10	19963,19
642,29	19945,44
642,49	20083,06
642,68	19774,78
642,87	19912,95
643,06	20002,51
643,25	19966,74
643,44	19606,02
643,63	19888,10
643,82	19696,54
644,01	19960,05
644,21	19874,85
644,40	19810,27
644,59	19517,01
644,78	19518,10
644,97	19575,58
645,16	19489,56
645,35	19271,39
645,54	19393,17
645,73	19112,33
645,92	19204,76
646,12	19099,90
646,31	18902,34
646,50	18843,09
646,69	18892,38
646,88	18717,34
647,07	18712,84
647,26	18684,30
647,45	18475,68
647,64	18482,64
647,83	18692,90
648,02	18637,88
648,22	18430,08
648,41	18184,60
648,60	18101,72
648,79	17970,11
648,98	18002,74
649,17	17780,60
649,36	18076,05
649,55	18027,59
649,74	18243,58
649,93	18071,14
650,12	18436,22
650,31	18422,43
650,50	18131,62
650,69	18180,64
650,88	18348,98
651,08	17763,13
651,27	18154,97
651,46	17965,19
651,65	18006,83
651,84	17896,65
652,03	18055,44
652,22	18001,51
652,41	18044,65
652,60	18119,06
652,79	18141,18
652,98	17991,95
653,17	17942,53
653,36	17971,47
653,55	17860,20
653,74	17828,25
653,93	17564,47
654,12	17306,56
654,31	17324,59
654,50	17260,01
654,69	17078,69
654,88	16654,76
655,07	16164,07
655,26	15585,59
655,45	15154,83
655,64	14934,88
655,83	14871,26
656,02	14972,15
656,21	15086,70
656,40	15281,81
656,59	15780,42
656,78	15750,52
656,97	16073,14
657,17	16358,49
657,36	16377,74
657,55	16426,07
657,74	16701,73
657,93	16700,50
658,12	16684,94
658,31	16817,37
658,50	16873,35
658,69	16538,99
658,87	16940,52
659,06	16629,37
659,25	16825,29
659,44	16632,37
659,63	16817,78
659,82	16802,08
660,01	16670,74
660,20	16686,85
660,39	16908,71
660,58	16615,72
660,77	16711,42
660,96	16696,13
661,15	16601,38
661,34	16628,69
661,53	16583,77
661,72	16595,51
661,91	16754,84
662,10	16538,44
662,29	16545,95
662,48	16327,91
662,67	16379,38
662,86	16117,24
663,05	16241,07
663,24	16214,31
663,43	16092,12
663,62	16067,68
663,81	16124,75
664,00	16134,85
664,19	15992,31
664,38	16027,40
664,57	16108,64
664,76	15971,97
664,94	15963,78
665,13	15899,75
665,32	15787,11
665,51	15884,86
665,70	15744,78
665,89	15797,89
666,08	15770,18
666,27	15733,45
666,46	15691,54
666,65	15541,22
666,84	15645,39
667,03	15566,47
667,22	15531,66
667,41	15650,99
667,60	15550,64
667,78	15573,44
667,97	15649,21
668,16	15604,02
668,35	15537,80
668,54	15315,12
668,73	15452,88
668,92	15301,60
669,11	15424,75
669,30	15158,38
669,49	15239,62
669,68	15219,41
669,86	15300,24
670,05	15187,60
670,24	15102,95
670,43	14951,40
670,62	15058,71
670,81	14793,98
671,00	14858,29
671,19	14944,16
671,38	14654,58
671,57	14818,69
671,75	14738,68
671,94	14730,08
672,13	14710,42
672,32	14629,46
672,51	14583,59
672,70	14722,57
672,89	14560,51
673,08	14559,97
673,26	14610,07
673,45	14317,21
673,64	14636,56
673,83	14358,04
674,02	14252,77
674,21	14493,61
674,40	14317,62
674,59	14304,65
674,77	14362,95
674,96	14249,36
675,15	14121,97
675,34	14304,52
675,53	14290,86
675,72	13953,77
675,91	14124,57
676,09	14124,84
676,28	14229,01
676,47	13792,25
676,66	13894,92
676,85	13936,29
677,04	14126,62
677,22	13814,64
677,41	13819,42
677,60	13792,66
677,79	13697,36
677,98	13626,91
678,17	13575,44
678,36	13673,20
678,54	13676,47
678,73	13618,72
678,92	13597,15
679,11	13685,21
679,30	13583,36
679,48	13593,60
679,67	13577,08
679,86	13625,55
680,05	13479,46
680,24	13306,06
680,43	13443,55
680,61	13257,46
680,80	13259,10
680,99	13336,10
681,18	13250,63
681,37	13224,69
681,55	13421,29
681,74	13113,01
681,93	13181,55
682,12	13002,14
682,31	13066,18
682,49	13068,77
682,68	12949,58
682,87	12974,43
683,06	12973,88
683,25	12847,59
683,43	12940,70
683,62	12650,17
683,81	12845,00
684,00	12790,25
684,19	12659,86
684,37	12633,51
684,56	12473,49
684,75	12554,18
684,94	12457,93
685,12	12597,33
685,31	12481,28
685,50	12129,57
685,69	11863,75
685,88	11135,35
686,06	10513,86
686,25	9669,96
686,44	9188,14
686,63	8794,80
686,81	8682,98
687,00	8747,69
687,19	8764,76
687,38	9097,49
687,56	9154,28
687,75	9285,63
687,94	9253,13
688,13	9145,14
688,31	9177,77
688,50	9187,19
688,69	9243,30
688,88	9384,48
689,06	9362,77
689,25	9392,67
689,44	9405,77
689,63	9589,00
689,81	9715,70
690,00	9730,58
690,19	9848,55
690,38	10097,31
690,56	9949,58
690,75	10159,43
690,94	10134,85
691,13	10318,76
691,31	10404,23
691,50	10395,90
691,69	10421,29
691,87	10463,76
692,06	10498,16
692,25	10458,98
692,44	10446,01
692,62	10353,03
692,81	10596,19
693,00	10337,33
693,18	10429,76
693,37	10383,75
693,56	10226,05
693,75	10219,09
693,93	10361,08
694,12	10312,48
694,31	10339,65
694,49	10223,87
694,68	10448,87
694,87	10216,77
695,05	10451,60
695,24	10326,95
695,43	10442,18
695,62	10517,14
695,80	10558,10
695,99	10644,66
696,18	10711,42
696,36	10793,48
696,55	10687,26
696,74	10532,84
696,92	10726,03
697,11	10563,42
697,30	10631,69
697,48	10539,80
697,67	10484,78
697,86	10413,92
698,04	10368,73
698,23	10277,39
698,42	10310,98
698,60	10200,11
698,79	10288,45
698,98	10201,61
699,16	10068,09
699,35	10166,94
699,54	10052,80
699,72	9916,13
699,91	10210,76
700,10	9979,62
700,28	9930,46
700,47	10054,57
700,66	9865,61
700,84	9812,91
701,03	9770,04
701,21	9773,73
701,40	9837,62
701,59	9767,31
701,77	9815,37
701,96	9690,58
702,15	9774,82
702,33	9760,48
702,52	9842,40
702,71	9757,34
702,89	9913,12
703,08	9806,22
703,26	9841,31
703,45	9955,31
703,64	9906,84
703,82	9880,36
704,01	9803,63
704,20	9821,51
704,38	9914,90
704,57	9617,12
704,75	9764,58
704,94	9751,61
705,13	9769,77
705,31	9728,94
705,50	9739,59
705,68	9700,00
705,87	9814,00
706,06	9735,36
706,24	9749,29
706,43	9628,46
706,61	9783,15
706,80	9621,49
706,99	9693,17
707,17	9662,32
707,36	9723,62
707,54	9650,98
707,73	9695,22
707,92	9631,32
708,10	9605,52
708,29	9391,44
708,47	9544,35
708,66	9576,30
708,84	9498,75
709,03	9495,34
709,22	9494,66
709,40	9404,27
709,59	9531,66
709,77	9525,10
709,96	9445,64
710,14	9400,72
710,33	9406,18
710,52	9412,19
710,70	9419,84
710,89	9342,97
711,07	9244,67
711,26	9391,30
711,44	9378,20
711,63	9216,41
711,81	9251,63
712,00	9100,63
712,19	9135,44
712,37	9188,14
712,56	9185,14
712,74	9031,82
712,93	9131,48
713,11	9059,80
713,30	9088,61
713,48	9000,55
713,67	9004,24
713,85	8861,01
714,04	8915,49
714,22	8769,81
714,41	8944,57
714,59	8709,46
714,78	8829,07
714,97	8764,21
715,15	8722,30
715,34	8737,45
715,52	8530,61
715,71	8409,10
715,89	8104,36
716,08	8079,65
716,26	7664,45
716,45	7546,49
716,63	7459,38
716,82	7230,29
717,00	7127,48
717,19	7060,99
717,37	6981,25
717,56	6768,13
717,74	6723,89
717,93	6614,12
718,11	6562,37
718,30	6234,84
718,48	6391,98
718,67	6404,82
718,85	6236,75
719,04	6157,56
719,22	6118,51
719,41	6188,14
719,59	6241,94
719,78	6186,09
719,96	6268,29
720,15	6440,59
720,33	6621,49
720,52	6753,11
720,70	6805,13
720,88	7079,83
721,07	7151,37
721,25	7148,23
721,44	7267,29
721,62	7182,36
721,81	7353,98
721,99	7176,08
722,18	7128,43
722,36	7048,15
722,55	6929,92
722,73	6676,11
722,92	6744,64
723,10	6560,33
723,28	6488,37
723,47	6451,78
723,65	6510,08
723,84	6356,76
724,02	6369,73
724,21	6387,61
724,39	6248,90
724,58	6268,97
724,76	6418,20
724,94	6206,98
725,13	6410,55
725,31	6298,87
725,50	6408,78
725,68	6400,31
725,87	6313,34
726,05	6386,39
726,23	6464,07
726,42	6384,47
726,60	6339,42
726,79	6133,80
726,97	6183,36
727,16	6250,81
727,34	6156,88
727,52	6268,29
727,71	6355,12
727,89	6250,81
728,08	6162,61
728,26	6163,43
728,44	6100,22
728,63	6234,56
728,81	6089,84
729,00	6161,66
729,18	6310,20
729,36	6268,83
729,55	6384,47
729,73	6269,79
729,92	6279,75
730,10	6075,09
730,28	6238,11
730,47	6180,91
730,65	6262,42
730,84	6283,58
731,02	6268,56
731,20	6345,29
731,39	6447,01
731,57	6450,83
731,75	6637,47
731,94	6433,49
732,12	6625,73
732,31	6521,55
732,49	6614,67
732,67	6630,91
732,86	6639,51
733,04	6636,78
733,22	6740,96
733,41	6692,22
733,59	6709,96
733,78	6727,58
733,96	6666,82
734,14	6655,35
734,33	6560,74
734,51	6643,61
734,69	6605,93
734,88	6548,72
735,06	6510,08
735,24	6510,22
735,43	6537,39
735,61	6297,50
735,79	6509,54
735,98	6379,15
736,16	6476,09
736,34	6353,48
736,53	6500,12
736,71	6486,05
736,89	6494,52
737,08	6340,24
737,26	6433,76
737,44	6411,78
737,63	6353,62
737,81	6259,82
737,99	6370,68
738,18	6302,01
738,36	6318,26
738,54	6212,04
738,73	6318,26
738,91	6423,39
739,09	6358,12
739,28	6210,53
739,46	6192,51
739,64	6375,46
739,82	6332,18
740,01	6212,31
740,19	6466,12
740,37	6114,55
740,56	6135,30
740,74	6129,57
740,92	6061,17
741,11	6083,15
741,29	6084,11
741,47	6171,49
741,65	6060,21
741,84	6116,74
742,02	6158,79
742,20	6197,97
742,39	6077,69
742,57	6267,06
742,75	6171,62
742,93	6151,55
743,12	6139,13
743,30	6083,70
743,48	6104,04
743,67	6142,81
743,85	5964,23
744,03	6068,95
744,21	6010,52
744,40	5975,43
744,58	6078,51
744,76	5988,53
744,94	6041,37
745,13	5981,57
745,31	5958,91
745,49	5868,80
745,67	5868,93
745,86	5892,01
746,04	5967,64
746,22	5881,77
746,40	5807,08
746,59	5812,95
746,77	5903,88
746,95	5942,52
747,13	5875,35
747,32	5760,39
747,50	5813,91
747,68	5706,73
747,86	5684,21
748,05	5776,64
748,23	5670,55
748,41	5678,06
748,59	5598,19
748,77	5551,50
748,96	5490,60
749,14	5425,21
749,32	5613,21
749,50	5526,10
749,69	5524,33
749,87	5397,08
750,05	5411,28
750,23	5359,53
750,41	5310,38
750,60	5358,03
750,78	5315,16
750,96	5288,40
751,14	5276,39
751,32	5306,29
751,51	5256,86
751,69	5212,49
751,87	5039,64
752,05	5245,53
752,23	5227,65
752,42	5038,28
752,60	5174,53
752,78	5133,17
752,96	5121,56
753,14	5142,72
753,33	5115,83
753,51	5021,07
753,69	5105,59
753,87	5046,20
754,05	5121,42
754,23	5065,45
754,42	5123,88
754,60	5059,98
754,78	5092,21
754,96	4957,31
755,14	5022,85
755,32	4951,58
755,51	4932,46
755,69	4999,09
755,87	4964,41
756,05	4920,86
756,23	4965,91
756,41	4942,43
756,60	4950,21
756,78	4928,23
756,96	4904,07
757,14	4937,65
757,32	4949,39
757,50	4992,81
757,68	4920,45
757,87	4926,73
758,05	4913,21
758,23	4673,87
758,41	4632,64
758,59	4287,90
758,77	3917,35
758,95	3289,31
759,14	2678,88
759,32	2210,58
759,50	1709,92
759,68	1339,51
759,86	1068,90
760,04	983,98
760,22	857,28
760,40	1018,66
760,59	990,53
760,77	1243,39
760,95	1443,14
761,13	1676,74
761,31	1971,10
761,49	2010,83
761,67	2067,22
761,85	1896,97
762,03	1726,16
762,22	1751,70
762,40	1594,14
762,58	1498,16
762,76	1520,00
762,94	1557,00
763,12	1628,00
763,30	1734,90
763,48	1811,50
763,66	1870,34
763,84	2000,59
764,02	2178,90
764,21	2317,34
764,39	2651,03
764,57	2638,06
764,75	2773,77
764,93	2900,74
765,11	3028,26
765,29	3259,14
765,47	3324,26
765,65	3504,89
765,83	3640,20
766,01	3744,23
766,19	3847,45
766,37	4057,03
766,56	4197,93
766,74	4301,28
766,92	4309,61
767,10	4424,16
767,28	4527,38
767,46	4609,02
767,64	4629,50
767,82	4697,77
768,00	4607,52
768,18	4724,80
768,36	4814,23
768,54	4889,59
768,72	4785,01
768,90	4645,89
769,08	4723,84
769,26	4770,95
769,44	4722,21
769,62	4848,63
769,80	4811,09
769,98	4901,20
770,16	4740,50
770,34	4747,74
770,52	4703,64
770,71	4766,17
770,89	4640,70
771,07	4822,97
771,25	4638,65
771,43	4754,02
771,61	4707,05
771,79	4664,73
771,97	4637,15
772,15	4621,04
772,33	4603,70
772,51	4623,49
772,69	4503,48
772,87	4592,50
773,05	4558,37
773,23	4601,51
773,41	4496,52
773,59	4567,24
773,77	4416,51
773,95	4489,15
774,13	4358,76
774,31	4406,82
774,49	4355,62
774,67	4264,83
774,85	4295,14
775,03	4318,07
775,21	4284,35
775,39	4292,27
775,57	4258,96
775,75	4353,44
775,93	4240,93
776,10	4213,22
776,28	4234,11
776,46	4076,55
776,64	4070,82
776,82	4108,36
777,00	5083,60
777,18	4037,09
777,36	4058,66
777,54	4059,07
777,72	3975,38
777,90	4024,26
778,08	3916,81
778,26	3860,69
778,44	3898,10
778,62	3956,40
778,80	3950,67
778,98	3930,05
779,16	3844,17
779,34	3974,83
779,52	3758,71
779,70	3949,58
779,88	3715,97
780,05	3776,45
780,23	3669,00
780,41	3774,82
780,59	3680,88
780,77	3802,40
780,95	3717,47
781,13	3770,04
781,31	3613,03
781,49	3709,83
781,67	3594,46
781,85	3644,16
782,03	3619,99
782,21	3584,49
782,39	3545,44
782,56	3586,54
782,74	3477,45
782,92	3479,64
783,10	3535,07
783,28	3352,66
783,46	3292,59
783,64	3449,74
783,82	3358,94
784,00	3384,61
784,18	3277,43
784,35	3291,36
784,53	3253,40
784,71	3259,96
784,89	3257,36
785,07	3273,88
785,25	3286,31
785,43	3295,32
785,61	3130,12
785,79	3200,84
785,96	3180,09
786,14	3180,50
786,32	3147,73
786,50	3241,52
786,68	3033,59
786,86	3012,97
787,04	2984,57
787,22	2992,08
787,39	3017,75
787,57	2975,43
787,75	3000,82
787,93	3035,09
788,11	2886,00
788,29	3018,16
788,47	2851,73
788,65	2846,27
788,82	2825,10
789,00	2868,52
789,18	2783,74
789,36	2820,74
789,54	2757,39
789,72	2776,50
789,89	2763,26
790,07	2816,50
790,25	2798,07
790,43	2774,86
790,61	2699,77
790,79	2687,21
790,96	2698,13
791,14	2772,81
791,32	2578,53
791,50	2736,77
791,68	2687,07
791,86	2627,95
792,03	2611,16
792,21	2576,75
792,39	2506,30
792,57	2565,97
792,75	2452,92
792,93	2549,58
793,10	2501,94
793,28	2524,87
793,46	2502,21
793,64	2598,87
793,82	2633,41
793,99	2614,44
794,17	2436,40
794,35	2536,07
794,53	2519,55
794,71	2448,14
794,88	2365,68
795,06	2444,05
795,24	2374,14
795,42	2371,27
795,60	2450,60
795,77	2378,51
795,95	2311,61
796,13	2396,67
796,31	2328,40
796,49	2540,98
796,66	2383,97
796,84	2367,59
797,02	2440,91
797,20	2395,30
797,37	2410,60
797,55	2374,41
797,73	2302,60
797,91	2284,17
798,08	2383,84
798,26	2400,77
798,44	2253,45
798,62	2278,71
798,80	2255,63
798,97	2242,94
799,15	2210,17
799,33	2303,15
799,51	2279,53
799,68	2214,54
799,86	2262,32
800,04	2264,78
800,22	2188,60
800,39	2170,57
800,57	2231,19
800,75	2217,68
800,93	2193,51
801,10	2175,08
801,28	2186,82
801,46	2117,19
801,63	2143,13
801,81	2185,05
801,99	2096,03
802,17	2099,30
802,34	2102,99
802,52	2005,64
802,70	2116,10
802,88	2112,55
803,05	2098,62
803,23	2034,45
803,41	1997,86
803,58	2052,20
803,76	2019,30
803,94	2051,38
804,12	2023,67
804,29	1983,25
804,47	2037,73
804,65	2000,46
804,82	2016,57
805,00	2010,15
805,18	1930,28
805,35	1946,12
805,53	1956,63
805,71	2000,73
805,89	2023,39
806,06	2004,42
806,24	1885,22
806,42	1869,39
806,59	1892,87
806,77	2024,08
806,95	1918,67
807,12	1894,92
807,30	1904,06
807,48	1800,85
807,65	1785,28
807,83	1876,08
808,01	1832,11
808,18	1789,92
808,36	1838,26
808,54	1761,12
808,71	1797,84
808,89	1821,05
809,07	1809,59
809,24	1810,81
809,42	1841,67
809,60	1741,32
809,77	1751,15
809,95	1748,28
810,13	1718,79
810,30	1700,36
810,48	1763,16
810,66	1681,79
810,83	1716,88
811,01	1711,83
811,18	1616,12
811,36	1622,26
811,54	1653,67
811,71	1690,39
811,89	1638,92
812,07	1549,36
812,24	1677,83
812,42	1555,36
812,59	1507,85
812,77	1514,27
812,95	1459,66
813,12	1467,30
813,30	1368,59
813,48	1473,04
813,65	1443,14
813,83	1442,18
814,00	1401,08
814,18	1401,08
814,36	1331,86
814,53	1335,00
814,71	1319,85
814,88	1362,04
815,06	1255,27
815,24	1313,84
815,41	1261,96
815,59	1289,95
815,76	1163,93
815,94	1286,67
816,12	1145,50
816,29	1260,87
816,47	1241,62
816,64	1349,75
816,82	1229,74
817,00	1279,71
817,17	1180,31
817,35	1291,59
817,52	1169,66
817,70	1232,33
817,87	1214,72
818,05	1212,67
818,23	1174,31
818,40	1292,54
818,58	1202,57
818,75	1126,79
818,93	1157,38
819,10	1205,16
819,28	1154,10
819,46	1211,44
819,63	1150,55
819,81	1354,66
819,98	1218,54
820,16	1313,84
820,33	1181,27
820,51	1353,71
820,68	1256,91
820,86	1270,42
821,03	1315,48
821,21	1236,84
821,39	1284,90
821,56	1171,17
821,74	1063,31
821,91	1060,03
822,09	981,80
822,26	931,83
822,44	900,15
822,61	887,59
822,79	982,62
822,96	1071,63
823,14	1055,11
823,31	1081,19
823,49	1178,13
823,66	1146,45
823,84	1104,67
824,01	1100,85
824,19	1061,94
824,36	1177,31
824,54	1176,90
824,71	1189,60
824,89	1141,67
825,06	1188,50
825,24	1095,12
825,41	1109,45
825,59	1126,79
825,76	1160,65
825,94	1068,08
826,11	1171,17
826,29	1104,81
826,46	1114,91
826,64	1127,48
826,81	1053,34
826,99	999,68
827,16	981,66
827,34	963,91
827,51	951,35
827,69	1071,77
827,86	1035,04
828,04	978,79
828,21	950,67
828,39	1022,07
828,56	1000,36
828,74	1005,14
828,91	983,71
829,09	1137,85
829,26	960,36
829,43	1023,30
829,61	960,09
829,78	958,72
829,96	992,72
830,13	932,10
830,31	1012,93
830,48	985,89
830,66	938,52
830,83	929,10
831,01	915,17
831,18	957,90
831,35	923,63
831,53	962,00
831,70	958,04
831,88	1096,89
832,05	999,41
832,23	925,00
832,40	971,69
832,57	966,23
832,75	909,98
832,92	944,80
833,10	1028,08
833,27	907,66
833,45	836,25
833,62	888,14
833,79	953,94
833,97	915,72
834,14	981,93
834,32	988,49
834,49	938,11
834,66	892,23
834,84	908,48
835,01	1002,82
835,19	846,22
835,36	882,13
835,53	982,48
835,71	950,12
835,88	946,43
836,06	944,66
836,23	1018,52
836,40	871,89
836,58	835,71
836,75	874,89
836,93	881,86
837,10	909,43
837,27	923,77
837,45	862,60
837,62	835,16
837,79	857,55
837,97	913,26
838,14	837,48
838,32	899,47
838,49	850,45
838,66	874,89
838,84	908,75
839,01	903,43
839,18	896,19
839,36	854,96
839,53	825,60
839,70	873,12
839,88	815,23
840,05	878,58
840,23	828,06
840,40	813,32
840,57	823,56
840,75	795,16
840,92	911,07
841,09	810,04
841,27	878,99
841,44	811,68
841,61	858,92
841,79	834,75
841,96	805,67
842,13	763,35
842,31	797,75
842,48	752,29
842,65	756,52
842,83	773,86
843,00	782,46
843,17	765,12
843,35	793,52
843,52	742,32
843,69	746,14
843,86	788,88
844,04	741,23
844,21	755,15
844,38	804,31
844,56	751,19
844,73	762,25
844,90	801,03
845,08	756,11
845,25	747,65
845,42	781,64
845,60	761,98
845,77	756,25
845,94	678,15
846,11	719,79
846,29	770,31
846,46	730,31
846,63	721,43
846,81	753,65
846,98	723,62
847,15	736,04
847,32	763,62
847,50	687,71
847,67	701,91
847,84	707,91
848,01	711,19
848,19	684,84
848,36	681,70
848,53	607,56
848,71	748,33
848,88	629,68
849,05	630,36
849,22	617,53
849,40	599,65
849,57	688,80
849,74	644,29
849,91	620,81
850,09	618,21
850,26	638,15
850,43	653,17
850,60	663,81
850,78	659,72
850,95	635,55
851,12	597,05
851,29	637,33
851,47	656,99
851,64	609,34
851,81	678,70
851,98	626,68
852,15	663,00
852,33	565,10
852,50	623,54
852,67	604,97
852,84	609,34
853,02	622,45
853,19	626,41
853,36	577,66
853,53	487,42
853,70	622,58
853,88	566,33
854,05	542,44
854,22	511,17
854,39	555,96
854,56	561,42
854,74	536,70
854,91	637,05
855,08	482,09
855,25	610,70
855,42	495,47
855,60	616,03
855,77	633,37
855,94	641,70
856,11	537,25
856,28	578,21
856,46	629,27
856,63	537,11
856,80	540,66
856,97	558,69
857,14	582,58
857,31	539,30
857,49	554,86
857,66	574,11
857,83	523,19
858,00	546,53
858,17	526,33
858,34	559,51
858,52	493,70
858,69	522,23
858,86	545,58
859,03	479,91
859,20	584,08
859,37	526,33
859,55	487,69
859,72	513,36
859,89	495,88
860,06	561,14
860,23	575,89
860,40	490,28
860,57	560,87
860,75	461,48
860,92	533,56
861,09	534,79
861,26	549,54
861,43	525,51
861,60	463,11
861,77	472,13
861,95	419,56
862,12	521,69
862,29	474,99
862,46	533,97
862,63	524,55
862,80	559,91
862,97	592,68
863,14	433,49
863,31	552,95
863,49	529,60
863,66	495,61
863,83	526,74
864,00	533,15
864,17	443,32
864,34	454,92
864,51	434,03
864,68	477,59
864,85	420,38
865,02	399,76
865,20	484,00
865,37	432,12
865,54	438,54
865,71	476,36
865,88	448,37
866,05	375,32
866,22	419,70
866,39	425,29
866,56	419,97
866,73	390,48
866,90	514,86
867,07	487,83
867,25	330,95
867,42	498,48
867,59	440,59
867,76	477,86
867,93	420,65
868,10	433,49
868,27	393,07
868,44	414,24
868,61	445,77
868,78	447,00
868,95	340,37
869,12	462,43
869,29	399,22
869,46	436,22
869,63	418,06
869,80	356,89
869,97	488,37
870,14	395,39
870,32	394,44
870,49	386,66
870,66	443,73
870,83	400,72
871,00	365,63
871,17	406,73
871,34	412,32
871,51	429,39
871,68	344,06
871,85	446,87
872,02	493,29
872,19	405,77
872,36	362,35
872,53	407,82
872,70	407,14
872,87	335,18
873,04	374,37
873,21	288,90
873,38	338,60
873,55	425,70
873,72	404,82
873,89	351,02
874,06	323,72
874,23	266,92
874,40	376,55
874,57	394,58
874,74	445,77
874,91	300,37
875,08	351,29
875,25	406,73
875,42	342,15
875,59	401,67
875,76	458,06
875,93	374,37
876,10	427,07
876,27	341,33
876,44	481,96
876,61	380,10
876,78	343,79
876,95	363,04
877,12	342,97
877,29	362,08
877,46	359,62
877,62	332,45
877,79	315,66
877,96	354,03
878,13	300,10
878,30	344,06
878,47	381,20
878,64	381,74
878,81	366,59
878,98	322,35
879,15	388,98
879,32	393,48
879,49	350,48
879,66	340,24
879,83	292,04
880,00	391,84
880,17	305,56
880,34	371,09
880,51	336,55
880,67	357,44
880,84	236,47
881,01	316,89
881,18	368,50
881,35	285,90
881,52	446,87
881,69	292,59
881,86	447,82
882,03	307,88
882,20	324,53
882,37	347,34
882,54	338,05
882,70	339,69
882,87	272,93
883,04	376,55
883,21	346,11
883,38	249,31
883,55	298,32
883,72	289,72
883,89	274,15
884,06	256,13
884,23	238,38
884,39	235,52
884,56	330,27
884,73	344,60
884,90	292,86
885,07	380,92
885,24	308,83
885,41	375,60
885,58	266,78
885,74	210,94
885,91	363,99
886,08	286,99
886,25	250,67
886,42	266,37
886,59	268,97
886,76	244,66
886,93	220,22
887,09	348,70
887,26	477,59
887,43	298,05
887,60	266,78
887,77	285,49
887,94	325,90
888,10	393,89
888,27	359,21
888,44	318,94
888,61	227,05
888,78	232,92
888,95	331,77
889,12	229,65
889,28	308,70
889,45	273,75
889,62	271,97
889,79	236,34
889,96	298,87
890,13	279,34
890,29	255,31
890,46	326,86
890,63	278,11
890,80	246,17
890,97	249,17
891,13	214,63
891,30	315,80
891,47	396,90
891,64	242,75
891,81	231,97
891,98	243,98
892,14	269,79
892,31	230,74
892,48	218,31
892,65	237,70
892,82	228,01
892,98	178,99
893,15	282,89
893,32	279,34
